KEV,INTENSITY
0.38556,4.42501
0.39312,4.37917
0.40068,4.33306
0.40824,4.28788
0.4158,4.24149
0.42336,4.19719
0.43092,4.15235
0.43848,4.10831
0.44604,4.06424
0.4536,4.02171
0.46116,3.97704
0.46872,3.93538
0.47628,3.89345
0.48384,3.85223
0.4914,3.81189
0.49896,3.77258
0.50652,3.73279
0.51408,3.69617
0.52164,3.65687
0.5292,3.6234
0.53676,3.58778
0.54432,3.55292
0.55188,3.52216
0.55944,3.48934
0.567,3.46054
0.57456,3.4295
0.58212,3.40062
0.58968,3.37151
0.59724,3.34773
0.6048,3.32098
0.61236,3.29788
0.61992,3.2743
0.62748,3.24874
0.63504,3.22766
0.6426,3.20698
0.65016,3.18663
0.65772,3.16895
0.66528,3.14714
0.67284,3.12992
0.6804,3.10973
0.68796,3.09328
0.69552,3.0787
0.70308,3.06033
0.71064,3.04297
0.7182,3.03159
0.72576,3.01705
0.73332,2.99841
0.74088,2.98297
0.74844,2.96715
0.756,2.95406
0.76356,2.9403
0.77112,2.92408
0.77868,2.91804
0.78624,2.89927
0.7938,2.8867
0.80136,2.86883
0.80892,2.85935
0.81648,2.8445
0.82404,2.82978
0.8316,2.81977
0.83916,2.80964
0.84672,2.79096
0.85428,2.78021
0.86184,2.76794
0.86941,2.75537
0.87697,2.74229
0.88453,2.73181
0.89209,2.7135
0.89965,2.7043
0.90721,2.69405
0.91477,2.68329
0.92233,2.67622
0.92989,2.66638
0.93745,2.65533
0.94501,2.64719
0.95257,2.63716
0.96013,2.62749
0.96769,2.61474
0.97525,2.61005
0.98281,2.5952
0.99037,2.589
0.99793,2.57722
1.00549,2.57655
1.01305,2.56623
1.02061,2.5452
1.02817,2.54013
1.03573,2.53489
1.04329,2.51777
1.05085,2.50959
1.05841,2.50313
1.06597,2.48902
1.07353,2.48595
1.08109,2.46715
1.08865,2.46168
1.09621,2.44968
1.10377,2.44496
1.11133,2.4295
1.11889,2.41795
1.12645,2.41059
1.13401,2.39984
1.14157,2.38411
1.14913,2.37653
1.15669,2.37612
1.16425,2.36298
1.17181,2.35705
1.17937,2.34221
1.18693,2.33299
1.19449,2.32365
1.20205,2.32572
1.20961,2.30089
1.21717,2.29718
1.22473,2.29654
1.23229,2.28701
1.23985,2.27569
1.24741,2.28463
1.25497,2.27021
1.26253,2.26677
1.27009,2.24879
1.27765,2.24737
1.28521,2.24433
1.29277,2.23433
1.30033,2.21869
1.30789,2.22578
1.31545,2.2239
1.32301,2.21792
1.33057,2.21246
1.33813,2.21357
1.34569,2.20495
1.35325,2.20466
1.36081,2.19454
1.36837,2.19589
1.37593,2.18564
1.38349,2.19184
1.39105,2.19317
1.39861,2.18671
1.40617,2.18414
1.41373,2.18152
1.42129,2.16949
1.42885,2.17244
1.43641,2.16767
1.44397,2.15831
1.45153,2.16648
1.45909,2.15459
1.46665,2.16388
1.47421,2.15795
1.48177,2.15487
1.48933,2.14676
1.49689,2.14603
1.50445,2.14083
1.51201,2.13318
1.51957,2.13602
1.52713,2.13339
1.53469,2.11782
1.54225,2.12264
1.54981,2.12497
1.55737,2.12402
1.56493,2.10884
1.57249,2.09732
1.58005,2.10366
1.58761,2.10912
1.59517,2.10457
1.60273,2.09056
1.61029,2.09419
1.61785,2.09423
1.62541,2.1023
1.63297,2.10402
1.64053,2.09314
1.64809,2.08984
1.65565,2.08473
1.66321,2.08322
1.67077,2.08831
1.67833,2.08849
1.68589,2.0717
1.69345,2.07323
1.70101,2.06609
1.70857,2.07221
1.71613,2.07063
1.72369,2.05892
1.73125,2.05671
1.73881,2.04884
1.74637,2.04969
1.75393,2.03613
1.76149,2.02562
1.76905,2.03058
1.77661,2.00815
1.78417,2.00462
1.79173,1.99911
1.79929,1.99722
1.80685,1.98549
1.81441,1.97504
1.82197,1.95502
1.82953,1.9622
1.83709,1.94757
1.84465,1.94043
1.85221,1.9387
1.85977,1.93257
1.86733,1.9271
1.87489,1.92197
1.88245,1.91194
1.89001,1.90801
1.89757,1.91651
1.90513,1.90836
1.91269,1.88732
1.92025,1.89817
1.92781,1.88117
1.93537,1.89144
1.94293,1.88974
1.95049,1.87757
1.95805,1.87293
1.96561,1.86671
1.97317,1.8611
1.98073,1.86485
1.98829,1.84737
1.99585,1.85812
2.00341,1.84938
2.01097,1.85088
2.01853,1.84519
2.02609,1.8479
2.03365,1.85829
2.04121,1.83803
2.04877,1.83873
2.05633,1.84702
2.06389,1.84294
2.07145,1.836
2.07901,1.82464
2.08657,1.8455
2.09413,1.83774
2.10169,1.82803
2.10925,1.81929
2.11681,1.84068
2.12437,1.83494
2.13193,1.82608
2.13949,1.84364
2.14705,1.8496
2.15461,1.84212
2.16217,1.84304
2.16973,1.84541
2.17729,1.84851
2.18485,1.84169
2.19241,1.84245
2.19997,1.8583
2.20753,1.84479
2.21509,1.84745
2.22265,1.85965
2.23021,1.85884
2.23777,1.8458
2.24533,1.84859
2.25289,1.84276
2.26045,1.83607
2.26801,1.84544
2.27557,1.8441
2.28313,1.83718
2.29069,1.83444
2.29825,1.82911
2.30581,1.8178
2.31337,1.81311
2.32093,1.8087
2.32849,1.81046
2.33605,1.80204
2.34361,1.82072
2.35117,1.79853
2.35873,1.79169
2.36629,1.7813
2.37385,1.77232
2.38141,1.77141
2.38897,1.75139
2.39653,1.76074
2.40409,1.76384
2.41165,1.74642
2.41921,1.73265
2.42677,1.71573
2.43433,1.72217
2.44189,1.71755
2.44945,1.70269
2.45701,1.70719
2.46457,1.69339
2.47213,1.6965
2.47969,1.68392
2.48725,1.68494
2.49481,1.66111
2.50237,1.66546
2.50993,1.66987
2.51749,1.65601
2.52505,1.65955
2.53261,1.65177
2.54017,1.648
2.54773,1.65443
2.55529,1.64321
2.56285,1.62381
2.57041,1.6294
2.57797,1.6206
2.58553,1.61315
2.59309,1.61843
2.60066,1.61874
2.60822,1.6195
2.61578,1.6191
2.62334,1.61819
2.6309,1.60005
2.63846,1.59918
2.64602,1.59201
2.65358,1.58109
2.66114,1.58876
2.6687,1.58847
2.67626,1.57268
2.68382,1.57694
2.69138,1.59141
2.69894,1.57244
2.7065,1.5714
2.71406,1.56719
2.72162,1.55657
2.72918,1.54122
2.73674,1.55164
2.7443,1.53269
2.75186,1.54092
2.75942,1.56261
2.76698,1.5476
2.77454,1.53903
2.7821,1.53103
2.78966,1.51396
2.79722,1.52658
2.80478,1.52548
2.81234,1.53356
2.8199,1.5107
2.82746,1.52759
2.83502,1.52567
2.84258,1.5103
2.85014,1.50054
2.8577,1.49364
2.86526,1.51729
2.87282,1.49943
2.88038,1.49335
2.88794,1.4749
2.8955,1.49934
2.90306,1.52189
2.91062,1.48653
2.91818,1.50446
2.92574,1.51256
2.9333,1.51929
2.94086,1.51393
2.94842,1.52577
2.95598,1.51617
2.96354,1.53713
2.9711,1.54433
2.97866,1.52641
2.98622,1.5449
2.99378,1.55654
3.00134,1.54422
3.0089,1.5535
3.01646,1.53567
3.02402,1.55165
3.03158,1.57657
3.03914,1.56759
3.0467,1.61224
3.05426,1.59428
3.06182,1.61997
3.06938,1.62419
3.07694,1.62114
3.0845,1.65204
3.09206,1.64866
3.09962,1.66646
3.10718,1.66844
3.11474,1.69374
3.1223,1.69476
3.12986,1.71743
3.13742,1.72606
3.14498,1.73597
3.15254,1.75343
3.1601,1.76098
3.16766,1.77932
3.17522,1.78313
3.18278,1.80699
3.19034,1.82104
3.1979,1.83274
3.20546,1.84341
3.21302,1.84233
3.22058,1.87693
3.22814,1.86314
3.2357,1.90238
3.24326,1.90395
3.25082,1.91328
3.25838,1.93073
3.26594,1.92918
3.2735,1.9465
3.28106,1.95976
3.28862,1.96592
3.29618,1.96607
3.30374,1.97762
3.3113,2.00327
3.31886,2.0016
3.32642,2.00858
3.33398,2.03137
3.34154,2.03259
3.3491,2.0454
3.35666,2.06779
3.36422,2.05927
3.37178,2.08204
3.37934,2.08977
3.3869,2.10752
3.39446,2.1309
3.40202,2.13934
3.40958,2.16741
3.41714,2.17363
3.4247,2.19603
3.43226,2.21613
3.43982,2.23683
3.44738,2.24685
3.45494,2.28
3.4625,2.3032
3.47006,2.32298
3.47762,2.33507
3.48518,2.37201
3.49274,2.3893
3.5003,2.40675
3.50786,2.42444
3.51542,2.45562
3.52298,2.47327
3.53054,2.48683
3.5381,2.50975
3.54566,2.53277
3.55322,2.54769
3.56078,2.55968
3.56834,2.5847
3.5759,2.59409
3.58346,2.6059
3.59102,2.62121
3.59858,2.63052
3.60614,2.64529
3.6137,2.65827
3.62126,2.66442
3.62882,2.67074
3.63638,2.67458
3.64394,2.6796
3.6515,2.68739
3.65906,2.69252
3.66662,2.69128
3.67418,2.68727
3.68174,2.69313
3.6893,2.68738
3.69686,2.6835
3.70442,2.68336
3.71198,2.67953
3.71954,2.6664
3.7271,2.66096
3.73466,2.64835
3.74222,2.64749
3.74978,2.63783
3.75734,2.62443
3.7649,2.61138
3.77246,2.59907
3.78002,2.58842
3.78758,2.57675
3.79514,2.56464
3.8027,2.55304
3.81026,2.53841
3.81782,2.52627
3.82538,2.50829
3.83294,2.49775
3.8405,2.47011
3.84806,2.46071
3.85562,2.44057
3.86318,2.42893
3.87074,2.41241
3.8783,2.3946
3.88586,2.37989
3.89342,2.35324
3.90098,2.3521
3.90854,2.33033
3.9161,2.31646
3.92366,2.29068
3.93122,2.27406
3.93878,2.26795
3.94634,2.24842
3.9539,2.23476
3.96146,2.21825
3.96902,2.20518
3.97658,2.2006
3.98414,2.19393
3.9917,2.16702
3.99926,2.15992
4.00682,2.14981
4.01438,2.14641
4.02194,2.12881
4.0295,2.12247
4.03706,2.10956
4.04462,2.094
4.05218,2.07817
4.05974,2.07168
4.0673,2.05171
4.07486,2.04271
4.08242,2.04015
4.08998,2.03046
4.09754,2.01823
4.1051,2.00697
4.11266,1.99766
4.12022,1.97596
4.12778,1.97522
4.13534,1.97296
4.1429,1.94076
4.15046,1.93445
4.15802,1.9449
4.16558,1.93935
4.17314,1.92862
4.1807,1.92275
4.18826,1.91423
4.19582,1.90819
4.20338,1.93272
4.21094,1.9268
4.2185,1.91438
4.22606,1.93822
4.23362,1.92495
4.24118,1.93621
4.24874,1.92857
4.2563,1.95772
4.26386,1.96212
4.27142,1.96689
4.27898,1.97374
4.28654,1.98119
4.2941,1.99369
4.30166,2.0256
4.30922,2.04137
4.31678,2.0594
4.32434,2.06023
4.33191,2.08475
4.33947,2.10009
4.34703,2.11206
4.35459,2.11809
4.36215,2.14077
4.36971,2.15532
4.37727,2.16664
4.38483,2.18705
4.39239,2.19388
4.39995,2.21343
4.40751,2.21759
4.41507,2.22989
4.42263,2.24691
4.43019,2.25254
4.43775,2.26666
4.44531,2.27206
4.45287,2.27805
4.46043,2.2878
4.46799,2.2931
4.47555,2.28622
4.48311,2.29639
4.49067,2.30623
4.49823,2.30184
4.50579,2.30564
4.51335,2.29674
4.52091,2.29121
4.52847,2.30021
4.53603,2.28265
4.54359,2.29288
4.55115,2.27218
4.55871,2.27493
4.56627,2.26564
4.57383,2.25938
4.58139,2.24589
4.58895,2.24947
4.59651,2.2292
4.60407,2.21445
4.61163,2.2044
4.61919,2.1982
4.62675,2.17728
4.63431,2.16823
4.64187,2.15984
4.64943,2.13173
4.65699,2.11098
4.66455,2.09187
4.67211,2.0771
4.67967,2.07095
4.68723,2.05899
4.69479,2.04283
4.70235,2.02049
4.70991,2.01299
4.71747,1.98265
4.72503,1.98755
4.73259,1.96724
4.74015,1.95285
4.74771,1.94022
4.75527,1.93058
4.76283,1.91931
4.77039,1.89824
4.77795,1.89286
4.78551,1.89068
4.79307,1.88675
4.80063,1.86644
4.80819,1.87018
4.81575,1.86679
4.82331,1.85363
4.83087,1.84982
4.83843,1.85143
4.84599,1.85923
4.85355,1.83762
4.86111,1.83839
4.86867,1.83599
4.87623,1.82685
4.88379,1.83747
4.89135,1.82621
4.89891,1.81994
4.90647,1.81393
4.91403,1.82409
4.92159,1.80517
4.92915,1.8092
4.93671,1.82103
4.94427,1.81328
4.95183,1.81224
4.95939,1.80762
4.96695,1.81129
4.97451,1.80354
4.98207,1.79951
4.98963,1.79946
4.99719,1.78719
5.00475,1.79862
5.01231,1.79396
5.01987,1.80345
5.02743,1.79576
5.03499,1.78765
5.04255,1.78973
5.05011,1.79671
5.05767,1.79561
5.06523,1.76848
5.07279,1.79041
5.08035,1.79363
5.08791,1.79907
5.09547,1.78655
5.10303,1.7882
5.11059,1.79112
5.11815,1.79892
5.12571,1.80042
5.13327,1.82457
5.14083,1.80894
5.14839,1.81219
5.15595,1.82854
5.16351,1.82919
5.17107,1.83049
5.17863,1.84609
5.18619,1.86169
5.19375,1.86094
5.20131,1.87294
5.20887,1.87477
5.21643,1.90879
5.22399,1.89236
5.23155,1.8986
5.23911,1.91743
5.24667,1.93796
5.25423,1.92455
5.26179,1.93303
5.26935,1.94528
5.27691,1.95632
5.28447,1.97183
5.29203,1.97767
5.29959,1.98306
5.30715,1.98914
5.31471,1.99731
5.32227,2.00526
5.32983,2.01463
5.33739,2.01265
5.34495,2.01056
5.35251,2.02413
5.36007,2.03027
5.36763,2.03701
5.37519,2.03439
5.38275,2.03514
5.39031,2.04177
5.39787,2.04364
5.40543,2.0424
5.41299,2.04591
5.42055,2.04802
5.42811,2.05429
5.43567,2.03503
5.44323,2.04342
5.45079,2.04458
5.45835,2.03062
5.46591,2.04556
5.47347,2.03764
5.48103,2.03535
5.48859,2.04309
5.49615,2.02609
5.50371,2.01146
5.51127,2.02199
5.51883,2.0208
5.52639,2.01038
5.53395,2.00396
5.54151,1.99814
5.54907,2.00806
5.55663,2.00484
5.56419,1.99618
5.57175,2.00364
5.57931,1.99168
5.58687,1.99537
5.59443,1.99233
5.60199,1.99449
5.60955,1.99363
5.61711,2.00885
5.62467,1.99898
5.63223,1.99758
5.63979,2.00944
5.64735,2.00872
5.65491,2.01599
5.66247,2.02038
5.67003,2.03316
5.67759,2.03913
5.68515,2.04118
5.69271,2.0372
5.70027,2.05515
5.70783,2.05595
5.71539,2.0668
5.72295,2.08151
5.73051,2.09172
5.73807,2.09218
5.74563,2.10914
5.75319,2.11809
5.76075,2.12662
5.76831,2.13939
5.77587,2.15454
5.78343,2.15985
5.79099,2.17538
5.79855,2.18469
5.80611,2.20227
5.81367,2.20853
5.82123,2.2207
5.82879,2.23562
5.83635,2.24332
5.84391,2.25909
5.85147,2.26988
5.85903,2.27872
5.86659,2.28603
5.87415,2.30052
5.88171,2.31298
5.88927,2.31076
5.89683,2.32439
5.90439,2.3443
5.91195,2.35141
5.91951,2.36219
5.92707,2.38114
5.93463,2.38867
5.94219,2.39421
5.94975,2.40828
5.95731,2.41659
5.96487,2.43082
5.97243,2.44032
5.97999,2.45586
5.98755,2.46547
5.99511,2.48026
6.00267,2.49372
6.01023,2.50958
6.01779,2.52929
6.02535,2.53522
6.03291,2.55119
6.04047,2.56908
6.04803,2.58384
6.05559,2.60935
6.06316,2.62532
6.07072,2.64235
6.07828,2.66008
6.08584,2.68339
6.0934,2.69775
6.10096,2.72341
6.10852,2.73662
6.11608,2.75832
6.12364,2.78238
6.1312,2.80174
6.13876,2.82508
6.14632,2.83881
6.15388,2.85979
6.16144,2.88442
6.169,2.90311
6.17656,2.91839
6.18412,2.94433
6.19168,2.96033
6.19924,2.97726
6.2068,2.99689
6.21436,3.01945
6.22192,3.03574
6.22948,3.04857
6.23704,3.06617
6.2446,3.08419
6.25216,3.09373
6.25972,3.11159
6.26728,3.12759
6.27484,3.13877
6.2824,3.15106
6.28996,3.1631
6.29752,3.17054
6.30508,3.182
6.31264,3.19241
6.3202,3.20166
6.32776,3.21106
6.33532,3.21729
6.34288,3.22133
6.35044,3.22731
6.358,3.22984
6.36556,3.23326
6.37312,3.23545
6.38068,3.23642
6.38824,3.23898
6.3958,3.23573
6.40336,3.23551
6.41092,3.23465
6.41848,3.23077
6.42604,3.22765
6.4336,3.22308
6.44116,3.21671
6.44872,3.20976
6.45628,3.20098
6.46384,3.19392
6.4714,3.1841
6.47896,3.17537
6.48652,3.16548
6.49408,3.15494
6.50164,3.13992
6.5092,3.12629
6.51676,3.11169
6.52432,3.09976
6.53188,3.08517
6.53944,3.0686
6.547,3.05506
6.55456,3.03397
6.56212,3.02434
6.56968,3.00366
6.57724,2.98832
6.5848,2.96968
6.59236,2.95651
6.59992,2.93762
6.60748,2.92148
6.61504,2.90552
6.6226,2.89086
6.63016,2.8762
6.63772,2.86878
6.64528,2.85671
6.65284,2.84687
6.6604,2.83093
6.66796,2.82552
6.67552,2.81835
6.68308,2.81584
6.69064,2.81395
6.6982,2.81162
6.70576,2.81157
6.71332,2.81153
6.72088,2.81556
6.72844,2.82007
6.736,2.82762
6.74356,2.82806
6.75112,2.83741
6.75868,2.84495
6.76624,2.8513
6.7738,2.86405
6.78136,2.86563
6.78892,2.87402
6.79648,2.88307
6.80404,2.8958
6.8116,2.89983
6.81916,2.9131
6.82672,2.91409
6.83428,2.92224
6.84184,2.93245
6.8494,2.94018
6.85696,2.9423
6.86452,2.95084
6.87208,2.95783
6.87964,2.95984
6.8872,2.96828
6.89476,2.97174
6.90232,2.97217
6.90988,2.97227
6.91744,2.97949
6.925,2.97955
6.93256,2.97307
6.94012,2.97825
6.94768,2.97673
6.95524,2.9738
6.9628,2.96959
6.97036,2.96521
6.97792,2.96174
6.98548,2.95574
6.99304,2.95177
7.0006,2.94248
7.00816,2.93507
7.01572,2.92861
7.02328,2.91644
7.03084,2.90579
7.0384,2.89788
7.04596,2.88509
7.05352,2.87274
7.06108,2.85865
7.06864,2.84203
7.0762,2.82817
7.08376,2.81022
7.09132,2.79198
7.09888,2.77945
7.10644,2.7629
7.114,2.74548
7.12156,2.72274
7.12912,2.70872
7.13668,2.68634
7.14424,2.66599
7.1518,2.63798
7.15936,2.6201
7.16692,2.58854
7.17448,2.5717
7.18204,2.54901
7.1896,2.52428
7.19716,2.49758
7.20472,2.47922
7.21228,2.44893
7.21984,2.42619
7.2274,2.39774
7.23496,2.36983
7.24252,2.34631
7.25008,2.31294
7.25764,2.29628
7.2652,2.26016
7.27276,2.23685
7.28032,2.2084
7.28788,2.1893
7.29544,2.16363
7.303,2.13477
7.31056,2.10634
7.31812,2.08966
7.32568,2.06118
7.33324,2.04944
7.3408,2.0196
7.34836,2.00529
7.35592,1.98463
7.36348,1.96673
7.37104,1.95104
7.3786,1.93947
7.38616,1.92345
7.39372,1.89915
7.40128,1.89303
7.40884,1.88879
7.4164,1.88041
7.42396,1.87504
7.43152,1.87624
7.43908,1.86828
7.44664,1.84567
7.4542,1.86328
7.46176,1.85483
7.46932,1.85882
7.47688,1.85756
7.48444,1.84617
7.492,1.84402
7.49956,1.85764
7.50712,1.83843
7.51468,1.85871
7.52224,1.86577
7.5298,1.85411
7.53736,1.85402
7.54492,1.86118
7.55248,1.85669
7.56004,1.8549
7.5676,1.84909
7.57516,1.85352
7.58272,1.86501
7.59028,1.84908
7.59784,1.83096
7.6054,1.85133
7.61296,1.83455
7.62052,1.84029
7.62808,1.83727
7.63564,1.82558
7.6432,1.82517
7.65076,1.84423
7.65832,1.82264
7.66588,1.81838
7.67344,1.81964
7.681,1.79394
7.68856,1.80394
7.69612,1.78899
7.70368,1.79379
7.71124,1.77018
7.7188,1.77389
7.72636,1.7575
7.73392,1.76519
7.74148,1.7553
7.74904,1.72448
7.7566,1.73461
7.76416,1.70363
7.77172,1.70047
7.77928,1.67804
7.78684,1.65544
7.79441,1.64396
7.80197,1.64033
7.80953,1.6142
7.81709,1.58571
7.82465,1.59222
7.83221,1.58628
7.83977,1.56487
7.84733,1.54099
7.85489,1.51535
7.86245,1.51083
7.87001,1.48572
7.87757,1.43757
7.88513,1.45159
7.89269,1.44645
7.90025,1.40912
7.90781,1.39
7.91537,1.40134
7.92293,1.39019
7.93049,1.38385
7.93805,1.33619
7.94561,1.32546
7.95317,1.32674
7.96073,1.3288
7.96829,1.30656
7.97585,1.28832
7.98341,1.27651
7.99097,1.26512
7.99853,1.25522
8.00609,1.26032
8.01365,1.25378
8.02121,1.24383
8.02877,1.23229
8.03633,1.21073
8.04389,1.21567
8.05145,1.23388
8.05901,1.2284
8.06657,1.21578
8.07413,1.19726
8.08169,1.16161
8.08925,1.20204
8.09681,1.18389
8.10437,1.19294
8.11193,1.16796
8.11949,1.17147
8.12705,1.17571
8.13461,1.19735
8.14217,1.16495
8.14973,1.14156
8.15729,1.15082
8.16485,1.13507
8.17241,1.13759
8.17997,1.13006
8.18753,1.12174
8.19509,1.08851
8.20265,1.156
8.21021,1.15598
8.21777,1.12749
8.22533,1.12925
8.23289,1.12779
8.24045,1.12116
8.24801,1.10575
8.25557,1.10727
8.26313,1.1071
8.27069,1.13011
8.27825,1.1317
8.28581,1.14501
8.29337,1.10948
8.30093,1.08737
8.30849,1.06578
8.31605,1.10279
8.32361,1.11438
8.33117,1.10833
8.33873,1.09595
8.34629,1.07837
8.35385,1.08528
8.36141,1.09508
8.36897,1.08523
8.37653,1.09875
8.38409,1.11254
8.39165,1.06746
8.39921,1.0876
8.40677,1.08332
8.41433,1.08906
8.42189,1.1069
8.42945,1.08641
8.43701,1.06177
8.44457,1.0736
8.45213,1.09752
8.45969,1.06518
8.46725,1.06889
8.47481,1.09075
8.48237,1.07857
8.48993,1.07412
8.49749,1.10339
8.50505,1.08478
8.51261,1.09519
8.52017,1.07172
8.52773,1.07782
8.53529,1.07381
8.54285,1.06228
8.55041,1.0906
8.55797,1.09556
8.56553,1.06435
8.57309,1.05868
8.58065,1.08669
8.58821,1.0752
8.59577,1.09447
8.60333,1.03916
8.61089,1.0718
8.61845,1.05836
8.62601,1.073
8.63357,1.06273
8.64113,1.08927
8.64869,1.08353
8.65625,1.07102
8.66381,1.04173
8.67137,1.03627
8.67893,1.04237
8.68649,1.06167
8.69405,1.07309
8.70161,1.0494
8.70917,1.03833
8.71673,1.05429
8.72429,1.07541
8.73185,1.05742
8.73941,1.05717
8.74697,1.03558
8.75453,1.02644
8.76209,1.06245
8.76965,1.04599
8.77721,1.05511
8.78477,1.04871
8.79233,0.99647
8.79989,1.02264
8.80745,0.97214
8.81501,1.00503
8.82257,1.03841
8.83013,0.9879
8.83769,1.0248
8.84525,0.97748
8.85281,1.00027
8.86037,1.00456
8.86793,1.03284
8.87549,1.02709
8.88305,0.99122
8.89061,0.97383
8.89817,0.99515
8.90573,0.96458
8.91329,1.01514
8.92085,0.99585
8.92841,0.99124
8.93597,1.02266
8.94353,0.97678
8.95109,0.96656
8.95865,1.00212
8.96621,1.01846
8.97377,1.00457
8.98133,0.96769
8.98889,0.99223
8.99645,0.94516
9.00401,1.00873
9.01157,0.95917
9.01913,0.98085
9.02669,1.00528
9.03425,0.92035
9.04181,0.95576
9.04937,0.9663
9.05693,0.97103
9.06449,0.97917
9.07205,0.96327
9.07961,1.01006
9.08717,0.97025
9.09473,0.92864
9.10229,0.99313
9.10985,0.97515
9.11741,0.95718
9.12497,0.99146
9.13253,0.97876
9.14009,0.95366
9.14765,0.92856
9.15521,0.98748
9.16277,0.97043
9.17033,0.9454
9.17789,0.92567
9.18545,0.96645
9.19301,0.90195
9.20057,0.98099
9.20813,0.92305
9.21569,0.954
9.22325,0.96639
9.23081,0.94743
9.23837,0.96618
9.24593,0.93639
9.25349,0.9268
9.26105,0.97177
9.26861,0.93945
9.27617,0.9362
9.28373,0.93883
9.29129,0.93905
9.29885,0.90266
9.30641,0.95792
9.31397,0.96138
9.32153,0.99121
9.32909,0.9523
9.33665,0.94786
9.34421,0.95773
9.35177,0.93269
9.35933,0.98455
9.36689,0.96861
9.37445,0.96675
