KEV,INTENSITY
0.39594,4.708
0.4037,4.66905
0.41146,4.63398
0.41923,4.59195
0.42699,4.55103
0.43475,4.51355
0.44252,4.47713
0.45028,4.43635
0.45804,4.4011
0.46581,4.3674
0.47357,4.32813
0.48133,4.2882
0.4891,4.25415
0.49686,4.2153
0.50462,4.1799
0.51239,4.14038
0.52015,4.1054
0.52791,4.07388
0.53568,4.03833
0.54344,4.00518
0.55121,3.96873
0.55897,3.92998
0.56673,3.90095
0.5745,3.86365
0.58226,3.84258
0.59002,3.80335
0.59779,3.7774
0.60555,3.74318
0.61331,3.71348
0.62108,3.6801
0.62884,3.65365
0.6366,3.63095
0.64437,3.60653
0.65213,3.57415
0.65989,3.55308
0.66766,3.52545
0.67542,3.5006
0.68318,3.46763
0.69095,3.45385
0.69871,3.42193
0.70647,3.40243
0.71424,3.38073
0.722,3.35843
0.72976,3.33493
0.73753,3.32525
0.74529,3.28598
0.75305,3.2757
0.76082,3.2571
0.76858,3.2332
0.77635,3.22
0.78411,3.19905
0.79187,3.16963
0.79964,3.13118
0.8074,3.11593
0.81516,3.1032
0.82293,3.10688
0.83069,3.0883
0.83845,3.0824
0.84622,3.07448
0.85398,3.05525
0.86174,3.03318
0.86951,3.02828
0.87727,3.02545
0.88503,3.028
0.8928,3.03055
0.90056,3.00883
0.90832,3.00383
0.91609,2.9864
0.92385,2.97195
0.93161,2.9507
0.93938,2.9563
0.94714,2.93413
0.9549,2.91093
0.96267,2.911
0.97043,2.90118
0.9782,2.88993
0.98596,2.89153
0.99372,2.86078
1.00149,2.8424
1.00925,2.85043
1.01701,2.82815
1.02478,2.8182
1.03254,2.81568
1.0403,2.80565
1.04807,2.8015
1.05583,2.776
1.06359,2.77443
1.07136,2.7437
1.07912,2.7532
1.08688,2.7432
1.09465,2.72645
1.10241,2.70865
1.11017,2.70223
1.11794,2.68395
1.1257,2.68595
1.13346,2.6676
1.14123,2.6561
1.14899,2.64558
1.15675,2.64803
1.16452,2.6294
1.17228,2.62383
1.18004,2.60978
1.18781,2.59548
1.19557,2.5854
1.20334,2.58515
1.2111,2.56515
1.21886,2.54983
1.22663,2.5636
1.23439,2.53728
1.24215,2.57108
1.24992,2.53868
1.25768,2.52828
1.26544,2.50633
1.27321,2.51673
1.28097,2.49795
1.28873,2.50465
1.2965,2.51605
1.30426,2.46265
1.31202,2.47343
1.31979,2.46565
1.32755,2.4803
1.33531,2.458
1.34308,2.47493
1.35084,2.43683
1.3586,2.45558
1.36637,2.43655
1.37413,2.43603
1.38189,2.44368
1.38966,2.3882
1.39742,2.41693
1.40518,2.4175
1.41295,2.40288
1.42071,2.4002
1.42848,2.41885
1.43624,2.39585
1.444,2.3935
1.45177,2.39698
1.45953,2.3825
1.46729,2.3667
1.47506,2.37228
1.48282,2.38705
1.49058,2.38655
1.49835,2.36873
1.50611,2.37103
1.51387,2.36278
1.52164,2.36325
1.5294,2.39355
1.53716,2.33878
1.54493,2.35088
1.55269,2.34475
1.56045,2.34883
1.56822,2.3592
1.57598,2.32383
1.58374,2.3244
1.59151,2.34975
1.59927,2.34125
1.60703,2.33978
1.6148,2.34333
1.62256,2.33845
1.63033,2.2985
1.63809,2.3183
1.64585,2.32193
1.65362,2.32765
1.66138,2.29023
1.66914,2.31078
1.67691,2.29393
1.68467,2.3066
1.69243,2.29693
1.7002,2.2831
1.70796,2.30745
1.71572,2.2668
1.72349,2.2694
1.73125,2.2765
1.73901,2.24303
1.74678,2.21408
1.75454,2.22375
1.7623,2.21453
1.77007,2.18128
1.77783,2.19898
1.78559,2.18468
1.79336,2.1735
1.80112,2.19913
1.80888,2.14158
1.81665,2.1655
1.82441,2.14833
1.83217,2.153
1.83994,2.16565
1.8477,2.13973
1.85547,2.12225
1.86323,2.11655
1.87099,2.09138
1.87876,2.11628
1.88652,2.1323
1.89428,2.07865
1.90205,2.08243
1.90981,2.0652
1.91757,2.04188
1.92534,2.04835
1.9331,2.06568
1.94086,2.0408
1.94863,2.0397
1.95639,2.02613
1.96415,1.99468
1.97192,2.01335
1.97968,1.9969
1.98744,2.026
1.99521,2.01118
2.00297,1.9992
2.01073,1.9743
2.0185,1.97185
2.02626,1.9644
2.03402,1.99388
2.04179,1.9586
2.04955,1.92873
2.05732,1.9223
2.06508,1.902
2.07284,1.92898
2.08061,1.90005
2.08837,1.89343
2.09613,1.97975
2.1039,1.91165
2.11166,1.8867
2.11942,1.87723
2.12719,1.88375
2.13495,1.9059
2.14271,1.86668
2.15048,1.88333
2.15824,1.89788
2.166,1.88848
2.17377,1.9006
2.18153,1.89385
2.18929,1.82625
2.19706,1.90193
2.20482,1.8698
2.21258,1.8455
2.22035,1.85768
2.22811,1.87008
2.23587,1.8057
2.24364,1.84455
2.2514,1.86305
2.25916,1.86198
2.26693,1.84133
2.27469,1.8249
2.28246,1.84958
2.29022,1.82695
2.29798,1.79425
2.30575,1.84215
2.31351,1.82615
2.32127,1.80883
2.32904,1.82338
2.3368,1.79115
2.34456,1.8129
2.35233,1.8003
2.36009,1.79923
2.36785,1.77825
2.37562,1.7677
2.38338,1.77858
2.39114,1.77478
2.39891,1.801
2.40667,1.78483
2.41443,1.68635
2.4222,1.77115
2.42996,1.68818
2.43772,1.72568
2.44549,1.75805
2.45325,1.75438
2.46101,1.77728
2.46878,1.722
2.47654,1.65635
2.4843,1.72278
2.49207,1.73783
2.49983,1.72833
2.5076,1.70333
2.51536,1.74303
2.52312,1.6842
2.53089,1.66183
2.53865,1.72525
2.54641,1.7012
2.55418,1.70603
2.56194,1.71708
2.5697,1.7101
2.57747,1.73608
2.58523,1.68133
2.59299,1.7238
2.60076,1.66833
2.60852,1.69915
2.61628,1.6701
2.62405,1.6918
2.63181,1.64333
2.63957,1.75873
2.64734,1.75435
2.6551,1.70088
2.66286,1.727
2.67063,1.69998
2.67839,1.72453
2.68615,1.67063
2.69392,1.6977
2.70168,1.71338
2.70945,1.69263
2.71721,1.71033
2.72497,1.73418
2.73274,1.6319
2.7405,1.70748
2.74826,1.65745
2.75603,1.68213
2.76379,1.6222
2.77155,1.71608
2.77932,1.62945
2.78708,1.66205
2.79484,1.63928
2.80261,1.6117
2.81037,1.6279
2.81813,1.56368
2.8259,1.58538
2.83366,1.65528
2.84142,1.6957
2.84919,1.68188
2.85695,1.6253
2.86471,1.68945
2.87248,1.6719
2.88024,1.6499
2.888,1.64583
2.89577,1.64845
2.90353,1.59263
2.91129,1.62768
2.91906,1.64135
2.92682,1.60435
2.93459,1.67708
2.94235,1.64643
2.95011,1.69073
2.95788,1.6995
2.96564,1.68373
2.9734,1.59388
2.98117,1.65798
2.98893,1.64018
2.99669,1.74353
3.00446,1.58695
3.01222,1.70633
3.01998,1.71573
3.02775,1.63393
3.03551,1.68
3.04327,1.69428
3.05104,1.68305
3.0588,1.7671
3.06656,1.72165
3.07433,1.71145
3.08209,1.71468
3.08985,1.78915
3.09762,1.75703
3.10538,1.79673
3.11314,1.81158
3.12091,1.79835
3.12867,1.78948
3.13643,1.81663
3.1442,1.82365
3.15196,1.7939
3.15973,1.85958
3.16749,1.84983
3.17525,1.85403
3.18302,1.875
3.19078,1.9132
3.19854,1.9323
3.20631,1.89765
3.21407,1.8866
3.22183,1.9093
3.2296,1.9704
3.23736,1.9697
3.24512,1.98275
3.25289,1.98188
3.26065,1.99978
3.26841,2.0015
3.27618,2.02
3.28394,2.01603
3.2917,1.99533
3.29947,2.01515
3.30723,2.0772
3.31499,2.09313
3.32276,2.05593
3.33052,2.06865
3.33828,2.09003
3.34605,2.0876
3.35381,2.15315
3.36158,2.15893
3.36934,2.1742
3.3771,2.14308
3.38487,2.18078
3.39263,2.21913
3.40039,2.23195
3.40816,2.21713
3.41592,2.23675
3.42368,2.23153
3.43145,2.2502
3.43921,2.32748
3.44697,2.31758
3.45474,2.31408
3.4625,2.35243
3.47026,2.37338
3.47803,2.36723
3.48579,2.38538
3.49355,2.40363
3.50132,2.43658
3.50908,2.42995
3.51684,2.42448
3.52461,2.46445
3.53237,2.48175
3.54013,2.49243
3.5479,2.51485
3.55566,2.51753
3.56342,2.51653
3.57119,2.53503
3.57895,2.55458
3.58672,2.56925
3.59448,2.57175
3.60224,2.6014
3.61001,2.6094
3.61777,2.61238
3.62553,2.62423
3.6333,2.6418
3.64106,2.6439
3.64882,2.61683
3.65659,2.6423
3.66435,2.65033
3.67211,2.64328
3.67988,2.6353
3.68764,2.65185
3.6954,2.65888
3.70317,2.61305
3.71093,2.57715
3.71869,2.60488
3.72646,2.59903
3.73422,2.5953
3.74198,2.60263
3.74975,2.5865
3.75751,2.60528
3.76527,2.60635
3.77304,2.58165
3.7808,2.58483
3.78857,2.5821
3.79633,2.58715
3.80409,2.59775
3.81186,2.59345
3.81962,2.58053
3.82738,2.55338
3.83515,2.5478
3.84291,2.56015
3.85067,2.498
3.85844,2.52285
3.8662,2.5038
3.87396,2.4825
3.88173,2.4564
3.88949,2.44655
3.89725,2.44703
3.90502,2.41753
3.91278,2.40395
3.92054,2.39915
3.92831,2.38128
3.93607,2.39483
3.94383,2.38885
3.9516,2.36148
3.95936,2.32923
3.96712,2.34695
3.97489,2.32353
3.98265,2.32148
3.99041,2.28173
3.99818,2.25523
4.00594,2.25548
4.01371,2.272
4.02147,2.23443
4.02923,2.22198
4.037,2.22695
4.04476,2.18805
4.05252,2.18538
4.06029,2.17043
4.06805,2.16995
4.07581,2.16548
4.08358,2.16575
4.09134,2.11113
4.0991,2.14408
4.10687,2.12868
4.11463,2.08715
4.12239,2.08528
4.13016,2.10233
4.13792,2.1074
4.14568,2.04885
4.15345,2.0681
4.16121,2.08583
4.16897,2.05105
4.17674,2.03595
4.1845,2.03493
4.19226,2.00518
4.20003,2.04063
4.20779,2.025
4.21555,2.02685
4.22332,2.0485
4.23108,1.99138
4.23885,2.0344
4.24661,1.99968
4.25437,2.06595
4.26214,2.00993
4.2699,2.03288
4.27766,2.01545
4.28543,2.03483
4.29319,2.03233
4.30095,2.0697
4.30872,2.09325
4.31648,2.07405
4.32424,2.03953
4.33201,2.07878
4.33977,2.09088
4.34753,2.08725
4.3553,2.10973
4.36306,2.08688
4.37082,2.10233
4.37859,2.15638
4.38635,2.12323
4.39411,2.132
4.40188,2.14275
4.40964,2.18645
4.4174,2.14708
4.42517,2.15165
4.43293,2.18703
4.4407,2.17518
4.44846,2.21955
4.45622,2.22353
4.46399,2.2027
4.47175,2.24688
4.47951,2.2428
4.48728,2.21695
4.49504,2.2439
4.5028,2.2229
4.51057,2.2281
4.51833,2.23005
4.52609,2.2339
4.53386,2.24545
4.54162,2.2558
4.54938,2.2123
4.55715,2.2198
4.56491,2.20838
4.57267,2.20405
4.58044,2.21773
4.5882,2.22595
4.59596,2.21793
4.60373,2.19358
4.61149,2.17638
4.61925,2.22315
4.62702,2.18233
4.63478,2.16278
4.64254,2.18233
4.65031,2.18783
4.65807,2.16795
4.66584,2.1304
4.6736,2.15948
4.68136,2.11605
4.68913,2.06175
4.69689,2.0846
4.70465,2.09278
4.71242,2.079
4.72018,2.08008
4.72794,2.06278
4.73571,2.04963
4.74347,2.0181
4.75123,2.00615
4.759,2.04763
4.76676,2.03305
4.77452,2.02483
4.78229,2.00713
4.79005,1.9927
4.79781,2.00568
4.80558,1.9702
4.81334,1.96758
4.8211,1.96213
4.82887,1.9466
4.83663,1.965
4.84439,1.91838
4.85216,1.92603
4.85992,1.88568
4.86768,1.89103
4.87545,1.90233
4.88321,1.82213
4.89098,1.86133
4.89874,1.8596
4.9065,1.89445
4.91427,1.84675
4.92203,1.8596
4.92979,1.86945
4.93756,1.90348
4.94532,1.85735
4.95308,1.83568
4.96085,1.9002
4.96861,1.81393
4.97637,1.84188
4.98414,1.86028
4.9919,1.82373
4.99966,1.86175
5.00743,1.86128
5.01519,1.8344
5.02295,1.8564
5.03072,1.82338
5.03848,1.86565
5.04624,1.84865
5.05401,1.84845
5.06177,1.8034
5.06953,1.87503
5.0773,1.88193
5.08506,1.84358
5.09283,1.80763
5.10059,1.84863
5.10835,1.87313
5.11612,1.8469
5.12388,1.83708
5.13164,1.84333
5.13941,1.88825
5.14717,1.87075
5.15493,1.87593
5.1627,1.8876
5.17046,1.88408
5.17822,1.9262
5.18599,1.89578
5.19375,1.89663
5.20151,1.9249
5.20928,1.90618
5.21704,1.88003
5.2248,1.90593
5.23257,1.95923
5.24033,1.93643
5.24809,1.94628
5.25586,1.97583
5.26362,1.92885
5.27138,1.97578
5.27915,1.99138
5.28691,1.97673
5.29467,1.97993
5.30244,1.99658
5.3102,2.00413
5.31797,2.00015
5.32573,1.98803
5.33349,2.00268
5.34126,1.9825
5.34902,2.00585
5.35678,2.03645
5.36455,2.01093
5.37231,2.0037
5.38007,2.04443
5.38784,2.00973
5.3956,2.03195
5.40336,2.0294
5.41113,2.0919
5.41889,2.0251
5.42665,2.0558
5.43442,2.0747
5.44218,2.09033
5.44994,2.03703
5.45771,2.07045
5.46547,2.07765
5.47323,2.06768
5.481,2.0918
5.48876,2.04673
5.49652,2.05628
5.50429,2.0583
5.51205,2.06135
5.51982,2.06805
5.52758,2.04698
5.53534,2.06395
5.54311,2.03983
5.55087,2.04553
5.55863,2.05538
5.5664,2.06215
5.57416,2.03445
5.58192,2.07685
5.58969,2.01358
5.59745,2.09908
5.60521,2.058
5.61298,2.04385
5.62074,2.0515
5.6285,2.04338
5.63627,2.0936
5.64403,2.07133
5.65179,2.0571
5.65956,2.06808
5.66732,2.10788
5.67508,2.038
5.68285,2.05995
5.69061,2.11783
5.69837,2.11058
5.70614,2.06285
5.7139,2.07308
5.72166,2.08183
5.72943,2.08883
5.73719,2.14805
5.74496,2.14038
5.75272,2.09443
5.76048,2.1223
5.76825,2.09455
5.77601,2.1138
5.78377,2.1384
5.79154,2.09945
5.7993,2.12258
5.80706,2.1339
5.81483,2.1752
5.82259,2.1978
5.83035,2.17535
5.83812,2.2028
5.84588,2.18888
5.85364,2.205
5.86141,2.23115
5.86917,2.24528
5.87693,2.2393
5.8847,2.28085
5.89246,2.2637
5.90022,2.3032
5.90799,2.2799
5.91575,2.29828
5.92351,2.30473
5.93128,2.33995
5.93904,2.33693
5.9468,2.35563
5.95457,2.38263
5.96233,2.3849
5.9701,2.38608
5.97786,2.3928
5.98562,2.40768
5.99339,2.42515
6.00115,2.45318
6.00891,2.45775
6.01668,2.45323
6.02444,2.46085
6.0322,2.49055
6.03997,2.51593
6.04773,2.52358
6.05549,2.54738
6.06326,2.55545
6.07102,2.56708
6.07878,2.57448
6.08655,2.58888
6.09431,2.60685
6.10207,2.59913
6.10984,2.64583
6.1176,2.6569
6.12536,2.6801
6.13313,2.69038
6.14089,2.68638
6.14865,2.71665
6.15642,2.7329
6.16418,2.73493
6.17195,2.7582
6.17971,2.76745
6.18747,2.77943
6.19524,2.80878
6.203,2.83
6.21076,2.84108
6.21853,2.8575
6.22629,2.8682
6.23405,2.88253
6.24182,2.89068
6.24958,2.89715
6.25734,2.90908
6.26511,2.92645
6.27287,2.92373
6.28063,2.9498
6.2884,2.95803
6.29616,2.96713
6.30392,2.99003
6.31169,2.97678
6.31945,2.9839
6.32721,3.01225
6.33498,3.00658
6.34274,3.00688
6.3505,3.02048
6.35827,3.03613
6.36603,3.02098
6.37379,3.03475
6.38156,3.04123
6.38932,3.04868
6.39709,3.05003
6.40485,3.04635
6.41261,3.05328
6.42038,3.06225
6.42814,3.06988
6.4359,3.05955
6.44367,3.06533
6.45143,3.0562
6.45919,3.04955
6.46696,3.05973
6.47472,3.05925
6.48248,3.06138
6.49025,3.04848
6.49801,3.05648
6.50577,3.04985
6.51354,3.04128
6.5213,3.02485
6.52906,3.02975
6.53683,3.0242
6.54459,3.0127
6.55235,3.01858
6.56012,3.0146
6.56788,2.99543
6.57564,2.99288
6.58341,2.98615
6.59117,2.97078
6.59893,2.97178
6.6067,2.9645
6.61446,2.9531
6.62223,2.95145
6.62999,2.92805
6.63775,2.93628
6.64552,2.9119
6.65328,2.91498
6.66104,2.9032
6.66881,2.88625
6.67657,2.89738
6.68433,2.87693
6.6921,2.8583
6.69986,2.83338
6.70762,2.8036
6.71539,2.8251
6.72315,2.80843
6.73091,2.80563
6.73868,2.82705
6.74644,2.82923
6.7542,2.80135
6.76197,2.79418
6.76973,2.80028
6.77749,2.81548
6.78526,2.84078
6.79302,2.8173
6.80078,2.8413
6.80855,2.84175
6.81631,2.85653
6.82408,2.83855
6.83184,2.84798
6.8396,2.83545
6.84737,2.83915
6.85513,2.8317
6.86289,2.82293
6.87066,2.84213
6.87842,2.83135
6.88618,2.82613
6.89395,2.83655
6.90171,2.84645
6.90947,2.8233
6.91724,2.848
6.925,2.8484
6.93276,2.86218
6.94053,2.85335
6.94829,2.84563
6.95605,2.86203
6.96382,2.84235
6.97158,2.85895
6.97934,2.8502
6.98711,2.8347
6.99487,2.8397
7.00263,2.83453
7.0104,2.83873
7.01816,2.8386
7.02592,2.8312
7.03369,2.82838
7.04145,2.8276
7.04922,2.8152
7.05698,2.81598
7.06474,2.78838
7.07251,2.8001
7.08027,2.79308
7.08803,2.79465
7.0958,2.78005
7.10356,2.76565
7.11132,2.75858
7.11909,2.7382
7.12685,2.7467
7.13461,2.72433
7.14238,2.70308
7.15014,2.69328
7.1579,2.67858
7.16567,2.67838
7.17343,2.67293
7.18119,2.64988
7.18896,2.64278
7.19672,2.60258
7.20448,2.58668
7.21225,2.58803
7.22001,2.56305
7.22777,2.54953
7.23554,2.5474
7.2433,2.52118
7.25107,2.5126
7.25883,2.4927
7.26659,2.47548
7.27436,2.45513
7.28212,2.42513
7.28988,2.42453
7.29765,2.39963
7.30541,2.4058
7.31317,2.3546
7.32094,2.35653
7.3287,2.32328
7.33646,2.28195
7.34423,2.28918
7.35199,2.26235
7.35975,2.2678
7.36752,2.2445
7.37528,2.21423
7.38304,2.19745
7.39081,2.142
7.39857,2.18023
7.40633,2.1165
7.4141,2.1142
7.42186,2.11848
7.42962,2.10808
7.43739,2.07068
7.44515,2.07395
7.45291,2.06513
7.46068,2.00958
7.46844,2.01508
7.47621,2.03145
7.48397,2.0283
7.49173,1.95635
7.4995,1.98113
7.50726,1.97253
7.51502,1.9609
7.52279,1.9523
7.53055,1.94948
7.53831,1.97725
7.54608,1.93868
7.55384,1.91378
7.5616,1.89118
7.56937,1.90965
7.57713,1.87195
7.58489,1.90158
7.59266,1.8889
7.60042,1.9083
7.60818,1.91383
7.61595,1.9546
7.62371,1.87088
7.63147,1.889
7.63924,1.828
7.647,1.83433
7.65476,1.82085
7.66253,1.84305
7.67029,1.85283
7.67805,1.82523
7.68582,1.79523
7.69358,1.78105
7.70135,1.77423
7.70911,1.79655
7.71687,1.77118
7.72464,1.75705
7.7324,1.754
7.74016,1.72263
7.74793,1.7915
7.75569,1.74053
7.76345,1.75555
7.77122,1.74203
7.77898,1.7378
7.78674,1.79065
7.79451,1.8059
7.80227,1.73313
7.81003,1.662
7.8178,1.73085
7.82556,1.72535
7.83332,1.6948
7.84109,1.73525
7.84885,1.70065
7.85661,1.6679
7.86438,1.63908
7.87214,1.67873
7.8799,1.62618
7.88767,1.63283
7.89543,1.58148
7.9032,1.60965
7.91096,1.62365
7.91872,1.58195
7.92649,1.58698
7.93425,1.58525
7.94201,1.59763
7.94978,1.50475
7.95754,1.5187
7.9653,1.53993
7.97307,1.5081
7.98083,1.4947
7.98859,1.41185
7.99636,1.4379
8.00412,1.41763
8.01188,1.4657
8.01965,1.43015
8.02741,1.46323
8.03517,1.34318
8.04294,1.45743
8.0507,1.35145
8.05846,1.32805
8.06623,1.32968
8.07399,1.38653
8.08175,1.27815
8.08952,1.2822
8.09728,1.2993
8.10504,1.29243
8.11281,1.34478
8.12057,1.24438
8.12834,1.2766
8.1361,1.2528
8.14386,1.25971
8.15163,1.32523
8.15939,1.28883
8.16715,1.2955
8.17492,1.32628
8.18268,1.24138
8.19044,1.18113
8.19821,1.21231
8.20597,1.2255
8.21373,1.2757
8.2215,1.21485
8.22926,1.10054
8.23702,1.274
8.24479,1.26365
8.25255,1.1559
8.26031,1.1611
8.26808,1.21408
8.27584,1.13353
8.2836,1.18595
8.29137,1.15138
8.29913,1.19345
8.30689,1.09348
8.31466,1.10096
8.32242,1.18168
8.33018,1.0932
8.33795,1.16255
8.34571,1.17235
8.35348,1.1809
8.36124,1.15613
8.369,1.09592
8.37677,1.16025
8.38453,1.11739
8.39229,1.21911
8.40006,1.09398
8.40782,1.0396
8.41558,1.12275
8.42335,1.11485
8.43111,1.12458
8.43887,1.16495
8.44664,1.10066
8.4544,1.00727
8.46216,1.0792
8.46993,1.21858
8.47769,1.13465
8.48545,1.09591
8.49322,1.10242
8.50098,1.14668
8.50874,1.2453
8.51651,1.07418
8.52427,1.16558
8.53203,1.08841
8.5398,1.23243
8.54756,1.13158
8.55533,1.12408
8.56309,1.07418
8.57085,1.13633
8.57862,1.08363
8.58638,1.26015
8.59414,0.96719
8.60191,0.98974
8.60967,1.09032
8.61743,1.13995
8.6252,1.05356
8.63296,1.05633
8.64072,1.1445
8.64849,1.215
8.65625,1.02418
8.66401,1.11378
8.67178,1.1751
8.67954,1.07703
8.6873,1.22508
8.69507,1.08891
8.70283,1.1054
8.71059,1.05945
8.71836,0.98108
8.72612,0.98107
8.73388,1.17678
8.74165,1.12715
8.74941,1.18566
8.75717,1.01871
8.76494,1.03883
8.7727,1.07925
8.78047,1.21598
8.78823,1.04212
8.79599,0.9454
8.80376,0.98659
8.81152,0.97225
8.81928,1.05239
8.82705,1.05586
8.83481,1.08786
8.84257,1.16958
8.85034,0.97469
8.8581,0.99557
8.86586,0.94178
8.87363,0.95409
8.88139,0.90472
8.88915,0.98137
8.89692,1.05862
8.90468,0.92245
8.91244,1.04077
8.92021,0.87629
8.92797,1.14333
8.93573,0.98531
8.9435,1.08575
8.95126,1.08388
8.95902,1.08696
8.96679,0.87353
8.97455,0.93596
8.98232,0.93959
8.99008,1.04828
8.99784,0.85764
9.00561,0.87214
9.01337,1.00087
9.02113,0.92456
9.0289,0.9384
9.03666,1.00815
9.04442,0.95489
9.05219,0.87458
9.05995,0.88207
9.06771,0.78015
9.07548,0.94711
9.08324,0.96357
9.091,0.83362
9.09877,0.83056
9.10653,0.934
9.11429,0.86708
9.12206,0.97469
9.12982,0.90867
9.13758,1.02739
9.14535,0.71433
9.15311,0.78015
9.16087,0.71433
9.16864,1.04735
9.1764,1.0176
9.18416,0.89608
9.19193,0.95914
9.19969,0.97712
9.20746,0.89943
9.21522,0.82612
9.22298,1.0405
9.23075,0.94603
9.23851,0.92731
9.24627,0.83361
9.25404,0.90867
9.2618,0.93839
9.26956,0.994
9.27733,0.82536
9.28509,0.85035
9.29285,0.91087
9.30062,0.88054
9.30838,0.94234
9.31614,0.64637
9.32391,0.89194
9.33167,0.86819
9.33943,0.91281
9.3472,0.93596
9.35496,0.92867
9.36272,0.94146
9.37049,0.90643
9.37825,0.92146
9.38601,0.91812
9.39378,0.83756
9.40154,0.96325
9.4093,0.89943
9.41707,0.9978
9.42483,1.09061
9.4326,0.97713
9.44036,0.96719
9.44812,1.05863
9.45589,1.05723
9.46365,0.95536
9.47141,0.99037
9.47918,1.02722
9.48694,0.87409
9.4947,1.02066
9.50247,1.00316
9.51023,0.92167
9.51799,0.92317
9.52576,1.01292
9.53352,1.0176
9.54128,0.92867
9.54905,0.89608
9.55681,0.84396
9.56457,1.04372
9.57234,0.98975
9.5801,1.00421
9.58786,1.13645
9.59563,0.87015
9.60339,1.01365
9.61115,1.09719
9.61892,0.94178
9.62668,0.90581
9.63445,0.98807
9.64221,1.07083
9.64997,0.9672
9.65774,1.02193
9.6655,1.03883
9.67326,0.95733
9.68103,0.99371
9.68879,0.94235
9.69655,0.96847
9.70432,0.91449
9.71208,0.8409
9.71984,1.1121
