KEV,INTENSITY
0.39329,4.6838
0.401,4.63902
0.40871,4.59425
0.41643,4.56089
0.42414,4.52525
0.43185,4.4876
0.43956,4.44783
0.44727,4.40839
0.45498,4.3681
0.46269,4.32834
0.47041,4.28926
0.47812,4.2522
0.48583,4.21603
0.49354,4.1801
0.50125,4.14252
0.50896,4.10769
0.51668,4.06959
0.52439,4.03388
0.5321,3.99573
0.53981,3.96412
0.54752,3.93109
0.55523,3.90158
0.56295,3.86826
0.57066,3.83633
0.57837,3.80165
0.58608,3.77048
0.59379,3.74093
0.6015,3.71276
0.60921,3.68423
0.61693,3.66249
0.62464,3.63223
0.63235,3.60568
0.64006,3.57966
0.64777,3.55328
0.65548,3.52581
0.6632,3.50843
0.67091,3.48631
0.67862,3.46046
0.68633,3.43279
0.69404,3.41021
0.70175,3.38805
0.70947,3.36166
0.71718,3.33742
0.72489,3.31999
0.7326,3.30188
0.74031,3.28829
0.74802,3.26252
0.75573,3.24166
0.76345,3.22079
0.77116,3.20432
0.77887,3.18051
0.78658,3.16875
0.79429,3.14882
0.802,3.13269
0.80972,3.1081
0.81743,3.07481
0.82514,3.03118
0.83285,3.02485
0.84056,3.03616
0.84827,3.03851
0.85599,3.03949
0.8637,3.03152
0.87141,3.02186
0.87912,3.0075
0.88683,2.99237
0.89454,2.97973
0.90226,2.96053
0.90997,2.94783
0.91768,2.93483
0.92539,2.92394
0.9331,2.91075
0.94081,2.90377
0.94852,2.89542
0.95624,2.88328
0.96395,2.87249
0.97166,2.85746
0.97937,2.8513
0.98708,2.84763
0.99479,2.83299
1.00251,2.81845
1.01022,2.80883
1.01793,2.79702
1.02564,2.7816
1.03335,2.77687
1.04106,2.76464
1.04878,2.75662
1.05649,2.75386
1.0642,2.73898
1.07191,2.71909
1.07962,2.71692
1.08733,2.70953
1.09504,2.70227
1.10276,2.68835
1.11047,2.6774
1.11818,2.67682
1.12589,2.66546
1.1336,2.64992
1.14131,2.63771
1.14903,2.62834
1.15674,2.62511
1.16445,2.61201
1.17216,2.60471
1.17987,2.59406
1.18758,2.5872
1.1953,2.58178
1.20301,2.55475
1.21072,2.54771
1.21843,2.54421
1.22614,2.54222
1.23385,2.535
1.24156,2.51646
1.24928,2.51721
1.25699,2.50855
1.2647,2.49305
1.27241,2.477
1.28012,2.48528
1.28783,2.47014
1.29555,2.47013
1.30326,2.46432
1.31097,2.45311
1.31868,2.43488
1.32639,2.43148
1.3341,2.42539
1.34182,2.42283
1.34953,2.41881
1.35724,2.41459
1.36495,2.4104
1.37266,2.40933
1.38037,2.39652
1.38808,2.3844
1.3958,2.37112
1.40351,2.37336
1.41122,2.37605
1.41893,2.37359
1.42664,2.3628
1.43435,2.36414
1.44207,2.37266
1.44978,2.34767
1.45749,2.34978
1.4652,2.34088
1.47291,2.34454
1.48062,2.33406
1.48834,2.32671
1.49605,2.32862
1.50376,2.32133
1.51147,2.31425
1.51918,2.31562
1.52689,2.31784
1.5346,2.29672
1.54232,2.30923
1.55003,2.29433
1.55774,2.29827
1.56545,2.29698
1.57316,2.28226
1.58087,2.28548
1.58859,2.27386
1.5963,2.27509
1.60401,2.26011
1.61172,2.26287
1.61943,2.26598
1.62714,2.25779
1.63486,2.2541
1.64257,2.24672
1.65028,2.24846
1.65799,2.25561
1.6657,2.2434
1.67341,2.22195
1.68112,2.23182
1.68884,2.22026
1.69655,2.21838
1.70426,2.2003
1.71197,2.19235
1.71968,2.19462
1.72739,2.19315
1.73511,2.19238
1.74282,2.18568
1.75053,2.16287
1.75824,2.16356
1.76595,2.13248
1.77366,2.08207
1.78138,2.08219
1.78909,2.10903
1.7968,2.12835
1.80451,2.11161
1.81222,2.12243
1.81993,2.11528
1.82764,2.10897
1.83536,2.09026
1.84307,2.09756
1.85078,2.10703
1.85849,2.0697
1.8662,2.08336
1.87391,2.06411
1.88163,2.03671
1.88934,2.03022
1.89705,2.04978
1.90476,2.01352
1.91247,2.02346
1.92018,1.99526
1.9279,2.02748
1.93561,1.9892
1.94332,1.99392
1.95103,1.99028
1.95874,1.98057
1.96645,1.97991
1.97416,1.97408
1.98188,1.9703
1.98959,1.96514
1.9973,1.96496
2.00501,1.96073
2.01272,1.95026
2.02043,1.94206
2.02815,1.95353
2.03586,1.94698
2.04357,1.94222
2.05128,1.94247
2.05899,1.94012
2.0667,1.92059
2.07442,1.91507
2.08213,1.92242
2.08984,1.92315
2.09755,1.92759
2.10526,1.91974
2.11297,1.93017
2.12068,1.91057
2.1284,1.91574
2.13611,1.91281
2.14382,1.92109
2.15153,1.90254
2.15924,1.90848
2.16695,1.9167
2.17467,1.89774
2.18238,1.90235
2.19009,1.90285
2.1978,1.89795
2.20551,1.90435
2.21322,1.89422
2.22094,1.90345
2.22865,1.90244
2.23636,1.88076
2.24407,1.8939
2.25178,1.89052
2.25949,1.87147
2.2672,1.88756
2.27492,1.8792
2.28263,1.88582
2.29034,1.89156
2.29805,1.87657
2.30576,1.87849
2.31347,1.88065
2.32119,1.87909
2.3289,1.87697
2.33661,1.86501
2.34432,1.85844
2.35203,1.85524
2.35974,1.87098
2.36746,1.85531
2.37517,1.8539
2.38288,1.84273
2.39059,1.82625
2.3983,1.83605
2.40601,1.82334
2.41372,1.83389
2.42144,1.82666
2.42915,1.81962
2.43686,1.82419
2.44457,1.80247
2.45228,1.81495
2.45999,1.81055
2.46771,1.81727
2.47542,1.79044
2.48313,1.81084
2.49084,1.79869
2.49855,1.78099
2.50626,1.78587
2.51398,1.76764
2.52169,1.77144
2.5294,1.77137
2.53711,1.7578
2.54482,1.77462
2.55253,1.76901
2.56024,1.75782
2.56796,1.74681
2.57567,1.76231
2.58338,1.73902
2.59109,1.76399
2.5988,1.7483
2.60651,1.75657
2.61423,1.74368
2.62194,1.74683
2.62965,1.72727
2.63736,1.73803
2.64507,1.73973
2.65278,1.72957
2.6605,1.73288
2.66821,1.72886
2.67592,1.71153
2.68363,1.71008
2.69134,1.71583
2.69905,1.70922
2.70677,1.71392
2.71448,1.71669
2.72219,1.71247
2.7299,1.71112
2.73761,1.70406
2.74532,1.70534
2.75303,1.70816
2.76075,1.71279
2.76846,1.69156
2.77617,1.68292
2.78388,1.65167
2.79159,1.63129
2.7993,1.64034
2.80702,1.68705
2.81473,1.69713
2.82244,1.6781
2.83015,1.69507
2.83786,1.72657
2.84557,1.70166
2.85329,1.71011
2.861,1.7117
2.86871,1.69857
2.87642,1.71661
2.88413,1.6917
2.89184,1.69199
2.89955,1.69254
2.90727,1.70417
2.91498,1.69327
2.92269,1.72155
2.9304,1.71558
2.93811,1.69727
2.94582,1.7121
2.95354,1.70733
2.96125,1.72674
2.96896,1.7009
2.97667,1.71346
2.98438,1.69785
2.99209,1.6903
2.99981,1.708
3.00752,1.71676
3.01523,1.7155
3.02294,1.73664
3.03065,1.74178
3.03836,1.7363
3.04607,1.73864
3.05379,1.73524
3.0615,1.74586
3.06921,1.72268
3.07692,1.75806
3.08463,1.77387
3.09234,1.77618
3.10006,1.76696
3.10777,1.7683
3.11548,1.79109
3.12319,1.79364
3.1309,1.80309
3.13861,1.80815
3.14633,1.83315
3.15404,1.82136
3.16175,1.83556
3.16946,1.85274
3.17717,1.86316
3.18488,1.88224
3.19259,1.88652
3.20031,1.88843
3.20802,1.9058
3.21573,1.91453
3.22344,1.93496
3.23115,1.93573
3.23886,1.95519
3.24658,1.94762
3.25429,1.97386
3.262,1.99819
3.26971,2.00623
3.27742,1.99892
3.28513,2.03192
3.29285,2.03055
3.30056,2.04306
3.30827,2.06271
3.31598,2.07651
3.32369,2.08053
3.3314,2.10283
3.33911,2.12315
3.34683,2.13205
3.35454,2.14785
3.36225,2.17491
3.36996,2.17767
3.37767,2.20431
3.38538,2.22098
3.3931,2.2347
3.40081,2.26374
3.40852,2.27495
3.41623,2.28714
3.42394,2.31416
3.43165,2.33264
3.43937,2.34682
3.44708,2.36988
3.45479,2.38755
3.4625,2.4168
3.47021,2.43463
3.47792,2.44623
3.48563,2.46374
3.49335,2.48031
3.50106,2.4953
3.50877,2.51692
3.51648,2.52916
3.52419,2.55735
3.5319,2.56712
3.53962,2.57217
3.54733,2.59343
3.55504,2.60624
3.56275,2.62021
3.57046,2.6257
3.57817,2.64451
3.58589,2.65487
3.5936,2.6733
3.60131,2.67139
3.60902,2.67587
3.61673,2.68218
3.62444,2.6881
3.63215,2.69996
3.63987,2.70136
3.64758,2.69925
3.65529,2.70001
3.663,2.70257
3.67071,2.70069
3.67842,2.69997
3.68614,2.69962
3.69385,2.69416
3.70156,2.68007
3.70927,2.64758
3.71698,2.62254
3.72469,2.6373
3.73241,2.66411
3.74012,2.66963
3.74783,2.68408
3.75554,2.68407
3.76325,2.67154
3.77096,2.66711
3.77867,2.66517
3.78639,2.64976
3.7941,2.64016
3.80181,2.6335
3.80952,2.62518
3.81723,2.61028
3.82494,2.6054
3.83266,2.5969
3.84037,2.57493
3.84808,2.5717
3.85579,2.54826
3.8635,2.53623
3.87121,2.52451
3.87893,2.49998
3.88664,2.49343
3.89435,2.47913
3.90206,2.46884
3.90977,2.44921
3.91748,2.4443
3.92519,2.42426
3.93291,2.40591
3.94062,2.39714
3.94833,2.39371
3.95604,2.3729
3.96375,2.3582
3.97146,2.35346
3.97918,2.329
3.98689,2.30458
3.9946,2.29376
4.00231,2.28004
4.01002,2.27326
4.01773,2.25799
4.02545,2.24858
4.03316,2.23098
4.04087,2.21915
4.04858,2.19848
4.05629,2.19021
4.064,2.182
4.07171,2.16603
4.07943,2.15866
4.08714,2.1495
4.09485,2.12675
4.10256,2.10651
4.11027,2.08975
4.11798,2.08504
4.1257,2.07312
4.13341,2.05293
4.14112,2.05433
4.14883,2.04749
4.15654,2.02991
4.16425,2.01038
4.17197,2.02046
4.17968,2.00288
4.18739,1.99087
4.1951,1.97676
4.20281,1.98672
4.21052,1.99136
4.21823,1.96977
4.22595,1.9619
4.23366,1.9777
4.24137,1.9729
4.24908,1.96127
4.25679,1.96844
4.2645,1.97414
4.27222,1.9644
4.27993,1.9587
4.28764,1.95854
4.29535,1.95832
4.30306,1.96354
4.31077,1.98195
4.31849,1.9862
4.3262,1.99141
4.33391,1.99356
4.34162,2.00224
4.34933,2.00747
4.35704,2.00926
4.36476,2.02117
4.37247,2.02639
4.38018,2.03652
4.38789,2.03993
4.3956,2.06583
4.40331,2.06099
4.41102,2.06732
4.41874,2.07037
4.42645,2.07183
4.43416,2.08884
4.44187,2.09468
4.44958,2.0866
4.45729,2.0823
4.46501,2.08587
4.47272,2.08841
4.48043,2.09599
4.48814,2.10576
4.49585,2.09643
4.50356,2.10557
4.51128,2.0923
4.51899,2.09989
4.5267,2.0892
4.53441,2.09865
4.54212,2.08961
4.54983,2.09805
4.55754,2.08327
4.56526,2.07673
4.57297,2.08718
4.58068,2.07961
4.58839,2.07221
4.5961,2.06408
4.60381,2.05235
4.61153,2.05236
4.61924,2.03605
4.62695,2.03095
4.63466,2.01688
4.64237,2.00606
4.65008,1.99901
4.6578,1.99311
4.66551,1.94911
4.67322,1.95493
4.68093,1.92712
4.68864,1.90052
4.69635,1.88522
4.70406,1.88589
4.71178,1.88875
4.71949,1.91471
4.7272,1.88617
4.73491,1.8811
4.74262,1.8946
4.75033,1.87689
4.75805,1.86855
4.76576,1.85434
4.77347,1.85942
4.78118,1.83852
4.78889,1.83051
4.7966,1.8167
4.80432,1.80817
4.81203,1.81034
4.81974,1.79667
4.82745,1.79251
4.83516,1.78515
4.84287,1.76324
4.85058,1.77123
4.8583,1.77287
4.86601,1.77085
4.87372,1.74242
4.88143,1.7503
4.88914,1.75343
4.89685,1.74387
4.90457,1.73457
4.91228,1.73076
4.91999,1.73678
4.9277,1.73129
4.93541,1.7127
4.94312,1.71002
4.95084,1.70598
4.95855,1.68383
4.96626,1.6811
4.97397,1.70659
4.98168,1.72462
4.98939,1.71965
4.9971,1.69547
5.00482,1.69545
5.01253,1.6962
5.02024,1.68798
5.02795,1.68548
5.03566,1.69114
5.04337,1.6906
5.05109,1.68403
5.0588,1.69981
5.06651,1.68873
5.07422,1.68461
5.08193,1.71143
5.08964,1.68671
5.09736,1.70617
5.10507,1.67898
5.11278,1.70136
5.12049,1.71016
5.1282,1.7021
5.13591,1.69754
5.14362,1.71017
5.15134,1.71924
5.15905,1.70749
5.16676,1.71869
5.17447,1.74119
5.18218,1.73993
5.18989,1.72867
5.19761,1.73064
5.20532,1.74971
5.21303,1.77163
5.22074,1.7449
5.22845,1.76012
5.23616,1.78394
5.24388,1.79117
5.25159,1.78942
5.2593,1.78467
5.26701,1.782
5.27472,1.80613
5.28243,1.80127
5.29014,1.81036
5.29786,1.80654
5.30557,1.82017
5.31328,1.82612
5.32099,1.84515
5.3287,1.82783
5.33641,1.83111
5.34413,1.83597
5.35184,1.83974
5.35955,1.8486
5.36726,1.86242
5.37497,1.86895
5.38268,1.87396
5.3904,1.88158
5.39811,1.88557
5.40582,1.87532
5.41353,1.8744
5.42124,1.87174
5.42895,1.89818
5.43666,1.90911
5.44438,1.89845
5.45209,1.8951
5.4598,1.89376
5.46751,1.91126
5.47522,1.92475
5.48293,1.92441
5.49065,1.92108
5.49836,1.92691
5.50607,1.93552
5.51378,1.94426
5.52149,1.91737
5.5292,1.93205
5.53692,1.93816
5.54463,1.94947
5.55234,1.97359
5.56005,1.96036
5.56776,1.97572
5.57547,1.98814
5.58318,1.98946
5.5909,1.98478
5.59861,1.99131
5.60632,2.01699
5.61403,2.02454
5.62174,2.00404
5.62945,2.01418
5.63717,2.02079
5.64488,2.048
5.65259,2.03694
5.6603,2.05367
5.66801,2.06178
5.67572,2.07371
5.68344,2.08053
5.69115,2.08978
5.69886,2.09832
5.70657,2.10402
5.71428,2.11623
5.72199,2.11505
5.7297,2.12435
5.73742,2.13979
5.74513,2.14448
5.75284,2.14581
5.76055,2.12267
5.76826,2.12784
5.77597,2.15697
5.78369,2.19265
5.7914,2.21057
5.79911,2.22715
5.80682,2.2471
5.81453,2.2591
5.82224,2.26833
5.82996,2.28363
5.83767,2.27887
5.84538,2.29944
5.85309,2.299
5.8608,2.30606
5.86851,2.32773
5.87622,2.336
5.88394,2.33359
5.89165,2.35586
5.89936,2.35739
5.90707,2.38614
5.91478,2.38667
5.92249,2.4036
5.93021,2.40908
5.93792,2.42258
5.94563,2.42959
5.95334,2.43668
5.96105,2.44216
5.96876,2.46564
5.97648,2.47302
5.98419,2.48996
5.9919,2.50474
5.99961,2.51415
6.00732,2.52536
6.01503,2.53654
6.02274,2.55174
6.03046,2.56404
6.03817,2.58056
6.04588,2.59676
6.05359,2.60795
6.0613,2.63102
6.06901,2.63588
6.07673,2.65939
6.08444,2.66488
6.09215,2.67916
6.09986,2.69992
6.10757,2.70975
6.11528,2.72616
6.123,2.73753
6.13071,2.75837
6.13842,2.76753
6.14613,2.78334
6.15384,2.8012
6.16155,2.81995
6.16927,2.8379
6.17698,2.84642
6.18469,2.86615
6.1924,2.87533
6.20011,2.89045
6.20782,2.89944
6.21553,2.91181
6.22325,2.92622
6.23096,2.94195
6.23867,2.95292
6.24638,2.96417
6.25409,2.97015
6.2618,2.982
6.26952,2.98946
6.27723,3.00128
6.28494,3.01124
6.29265,3.02365
6.30036,3.02867
6.30807,3.03833
6.31579,3.04489
6.3235,3.04456
6.33121,3.04738
6.33892,3.05608
6.34663,3.06109
6.35434,3.07057
6.36205,3.07179
6.36977,3.08082
6.37748,3.0806
6.38519,3.08102
6.3929,3.08317
6.40061,3.083
6.40832,3.08429
6.41604,3.0857
6.42375,3.08396
6.43146,3.08257
6.43917,3.0777
6.44688,3.07786
6.45459,3.06803
6.46231,3.06768
6.47002,3.06548
6.47773,3.06375
6.48544,3.06004
6.49315,3.05179
6.50086,3.03921
6.50857,3.03746
6.51629,3.02628
6.524,3.02294
6.53171,3.01636
6.53942,3.0121
6.54713,3.0007
6.55484,2.99346
6.56256,2.98653
6.57027,2.97499
6.57798,2.96394
6.58569,2.956
6.5934,2.94849
6.60111,2.93967
6.60883,2.9272
6.61654,2.91523
6.62425,2.90621
6.63196,2.88949
6.63967,2.88257
6.64738,2.87741
6.65509,2.86758
6.66281,2.86097
6.67052,2.85727
6.67823,2.83911
6.68594,2.801
6.69365,2.77367
6.70136,2.7826
6.70908,2.80801
6.71679,2.82075
6.7245,2.83278
6.73221,2.83544
6.73992,2.83707
6.74763,2.82892
6.75535,2.83397
6.76306,2.82337
6.77077,2.83163
6.77848,2.83444
6.78619,2.83658
6.7939,2.83117
6.80161,2.83704
6.80933,2.83717
6.81704,2.84047
6.82475,2.8394
6.83246,2.83573
6.84017,2.84079
6.84788,2.83929
6.8556,2.8436
6.86331,2.85134
6.87102,2.84999
6.87873,2.85176
6.88644,2.8529
6.89415,2.85519
6.90187,2.85514
6.90958,2.85979
6.91729,2.86245
6.925,2.85853
6.93271,2.85891
6.94042,2.85324
6.94813,2.85461
6.95585,2.85823
6.96356,2.85401
6.97127,2.85263
6.97898,2.84995
6.98669,2.84791
6.9944,2.84305
7.00212,2.83511
7.00983,2.82571
7.01754,2.82856
7.02525,2.82131
7.03296,2.81541
7.04067,2.81152
7.04839,2.80088
7.0561,2.79249
7.06381,2.78936
7.07152,2.77175
7.07923,2.76141
7.08694,2.7502
7.09465,2.74636
7.10237,2.72952
7.11008,2.72016
7.11779,2.71054
7.1255,2.68959
7.13321,2.68003
7.14092,2.67116
7.14864,2.6469
7.15635,2.64328
7.16406,2.62591
7.17177,2.6131
7.17948,2.59389
7.18719,2.56841
7.19491,2.54955
7.20262,2.54307
7.21033,2.51739
7.21804,2.50118
7.22575,2.48189
7.23346,2.46796
7.24117,2.44081
7.24889,2.4222
7.2566,2.40701
7.26431,2.38463
7.27202,2.3658
7.27973,2.35214
7.28744,2.32842
7.29516,2.30571
7.30287,2.28874
7.31058,2.25802
7.31829,2.22596
7.326,2.21592
7.33371,2.19975
7.34143,2.18483
7.34914,2.16784
7.35685,2.14486
7.36456,2.12764
7.37227,2.09725
7.37998,2.08074
7.38769,2.07574
7.39541,2.04292
7.40312,2.0191
7.41083,2.0254
7.41854,2.00096
7.42625,1.99152
7.43396,1.95284
7.44168,1.95277
7.44939,1.9465
7.4571,1.93799
7.46481,1.9287
7.47252,1.92144
7.48023,1.8996
7.48795,1.89383
7.49566,1.87339
7.50337,1.8692
7.51108,1.85926
7.51879,1.8485
7.5265,1.83754
7.53421,1.83592
7.54193,1.82804
7.54964,1.82428
7.55735,1.80901
7.56506,1.80369
7.57277,1.8061
7.58048,1.80784
7.5882,1.80823
7.59591,1.77621
7.60362,1.7709
7.61133,1.76857
7.61904,1.76167
7.62675,1.7627
7.63447,1.75139
7.64218,1.76503
7.64989,1.73921
7.6576,1.70731
7.66531,1.6829
7.67302,1.68063
7.68073,1.66599
7.68845,1.70672
7.69616,1.71804
7.70387,1.71943
7.71158,1.6967
7.71929,1.70971
7.727,1.6991
7.73472,1.70742
7.74243,1.6953
7.75014,1.67129
7.75785,1.68581
7.76556,1.6737
7.77327,1.65539
7.78099,1.64574
7.7887,1.63494
7.79641,1.62937
7.80412,1.59409
7.81183,1.58835
7.81954,1.58863
7.82726,1.58457
7.83497,1.56547
7.84268,1.55634
7.85039,1.55717
7.8581,1.53686
7.86581,1.53558
7.87352,1.49839
7.88124,1.49997
7.88895,1.48467
7.89666,1.50135
7.90437,1.4978
7.91208,1.45116
7.91979,1.47107
7.92751,1.44645
7.93522,1.44488
7.94293,1.41543
7.95064,1.4214
7.95835,1.40638
7.96606,1.41884
7.97378,1.39932
7.98149,1.39357
7.9892,1.37026
7.99691,1.34531
8.00462,1.3303
8.01233,1.33602
8.02004,1.3471
8.02776,1.3315
8.03547,1.30525
8.04318,1.32256
8.05089,1.30649
8.0586,1.32872
8.06631,1.282
8.07403,1.28713
8.08174,1.27309
8.08945,1.24975
8.09716,1.23052
8.10487,1.28668
8.11258,1.26922
8.1203,1.22529
8.12801,1.26792
8.13572,1.26819
8.14343,1.22387
8.15114,1.22102
8.15885,1.24066
8.16656,1.21194
8.17428,1.22634
8.18199,1.2166
8.1897,1.19539
8.19741,1.19484
8.20512,1.21176
8.21283,1.17069
8.22055,1.20568
8.22826,1.18237
8.23597,1.18619
8.24368,1.19185
8.25139,1.17908
8.2591,1.1939
8.26682,1.19425
8.27453,1.20439
8.28224,1.17226
8.28995,1.19591
8.29766,1.1543
8.30537,1.16165
8.31308,1.15496
8.3208,1.16889
8.32851,1.16254
8.33622,1.18006
8.34393,1.17283
8.35164,1.16241
8.35935,1.19187
8.36707,1.17602
8.37478,1.18485
8.38249,1.19237
8.3902,1.17596
8.39791,1.15535
8.40562,1.17741
8.41334,1.17088
8.42105,1.17159
8.42876,1.20616
8.43647,1.1833
8.44418,1.20805
8.45189,1.17635
8.4596,1.15844
8.46732,1.15453
8.47503,1.16716
8.48274,1.15896
8.49045,1.21144
8.49816,1.18797
8.50587,1.15526
8.51359,1.16279
8.5213,1.19605
8.52901,1.1818
8.53672,1.22083
8.54443,1.14183
8.55214,1.15642
8.55986,1.18607
8.56757,1.18043
8.57528,1.20593
8.58299,1.16497
8.5907,1.19249
8.59841,1.19241
8.60612,1.17483
8.61384,1.18202
8.62155,1.20356
8.62926,1.16399
8.63697,1.15262
8.64468,1.17871
8.65239,1.16465
8.66011,1.15265
8.66782,1.13249
8.67553,1.10407
8.68324,1.09644
8.69095,1.0947
8.69866,1.08828
8.70638,1.15583
8.71409,1.14034
8.7218,1.14895
8.72951,1.16515
8.73722,1.13807
8.74493,1.13255
8.75264,1.1513
8.76036,1.08988
8.76807,1.14422
8.77578,1.11299
8.78349,1.10919
8.7912,1.11665
8.79891,1.0909
8.80663,1.11525
8.81434,1.09496
8.82205,1.09926
8.82976,1.11953
8.83747,1.10112
8.84518,1.03402
8.8529,1.08664
8.86061,1.08572
8.86832,1.08475
8.87603,1.09407
8.88374,1.03289
8.89145,1.01476
8.89916,1.03503
8.90688,1.00879
8.91459,1.0516
8.9223,1.01042
8.93001,1.07587
8.93772,0.9779
8.94543,1.02627
8.95315,1.00667
8.96086,1.04156
8.96857,1.00121
8.97628,1.00649
8.98399,0.98119
8.9917,0.97944
8.99942,0.99367
9.00713,0.95713
9.01484,0.93976
9.02255,0.94136
9.03026,0.94186
9.03797,0.95254
9.04568,0.95739
9.0534,0.96236
9.06111,0.9238
9.06882,0.92808
9.07653,0.95496
9.08424,0.96006
9.09195,0.95125
9.09967,0.9235
9.10738,0.93106
9.11509,0.94812
9.1228,0.93369
9.13051,0.93277
9.13822,0.92854
9.14594,0.96526
9.15365,0.98799
9.16136,0.90228
9.16907,0.89789
9.17678,0.91245
9.18449,0.87705
9.1922,0.93971
9.19992,0.9303
9.20763,0.89627
9.21534,0.88717
9.22305,0.92024
9.23076,0.88307
9.23847,0.90069
9.24619,0.89442
9.2539,0.88815
9.26161,0.87532
9.26932,0.88956
9.27703,0.86321
9.28474,0.89105
9.29246,0.90033
9.30017,0.93478
9.30788,0.91439
9.31559,0.92409
9.3233,0.93442
9.33101,0.90629
9.33872,0.92628
9.34644,0.9149
9.35415,0.93943
9.36186,0.90363
9.36957,0.93967
9.37728,0.93339
9.38499,0.93825
9.39271,0.92247
9.40042,0.87904
9.40813,0.92255
9.41584,0.92233
9.42355,0.98262
9.43126,0.96135
9.43898,0.95633
9.44669,0.96054
9.4544,0.91399
9.46211,0.91982
9.46982,0.94943
9.47753,0.92377
9.48524,0.92883
9.49296,0.92358
9.50067,0.97425
9.50838,0.96842
9.51609,0.94465
9.5238,0.97832
9.53151,0.92105
9.53923,0.96746
9.54694,0.94817
9.55465,0.97333
9.56236,0.98998
9.57007,0.96758
9.57778,0.95992
