KEV,INTENSITY
0.38598,4.369475
0.39355,4.3185
0.40112,4.27015
0.40869,4.2245
0.41626,4.175375
0.42383,4.127125
0.43139,4.08645
0.43896,4.0371
0.44653,3.990525
0.4541,3.95115
0.46167,3.905875
0.46923,3.862325
0.4768,3.825625
0.48437,3.789175
0.49194,3.7482
0.49951,3.709475
0.50708,3.66665
0.51464,3.636975
0.52221,3.609175
0.52978,3.568625
0.53735,3.54415
0.54492,3.5122
0.55249,3.4817
0.56005,3.453225
0.56762,3.427075
0.57519,3.398175
0.58276,3.37455
0.59033,3.34575
0.5979,3.318325
0.60546,3.304525
0.61303,3.282225
0.6206,3.2512
0.62817,3.220075
0.63574,3.2029
0.64331,3.186925
0.65087,3.162
0.65844,3.1506
0.66601,3.118975
0.67358,3.098975
0.68115,3.094625
0.68872,3.060025
0.69628,3.032075
0.70385,3.016525
0.71142,2.99705
0.71899,2.979625
0.72656,2.96005
0.73413,2.9466
0.74169,2.92015
0.74926,2.908975
0.75683,2.897225
0.7644,2.8862
0.77197,2.876675
0.77954,2.8628
0.7871,2.832825
0.79467,2.83
0.80224,2.820925
0.80981,2.81315
0.81738,2.781175
0.82495,2.774875
0.83251,2.739875
0.84008,2.72495
0.84765,2.72845
0.85522,2.728475
0.86279,2.713175
0.87036,2.707725
0.87792,2.67955
0.88549,2.680675
0.89306,2.65975
0.90063,2.658875
0.9082,2.6372
0.91577,2.62615
0.92333,2.62035
0.9309,2.600175
0.93847,2.590525
0.94604,2.58985
0.95361,2.5672
0.96117,2.5734
0.96874,2.584925
0.97631,2.55645
0.98388,2.55565
0.99145,2.520325
0.99902,2.53595
1.00658,2.482075
1.01415,2.4763
1.02172,2.478625
1.02929,2.482025
1.03686,2.46905
1.04443,2.47845
1.05199,2.459975
1.05956,2.429925
1.06713,2.445125
1.0747,2.453675
1.08227,2.41175
1.08984,2.3967
1.0974,2.401
1.10497,2.4013
1.11254,2.375325
1.12011,2.39625
1.12768,2.35475
1.13525,2.348875
1.14281,2.36665
1.15038,2.350575
1.15795,2.3333
1.16552,2.328325
1.17309,2.3029
1.18066,2.3051
1.18822,2.279075
1.19579,2.273275
1.20336,2.2383
1.21093,2.23085
1.2185,2.2605
1.22607,2.273625
1.23363,2.232075
1.2412,2.260975
1.24877,2.231075
1.25634,2.197675
1.26391,2.228825
1.27148,2.198625
1.27904,2.231275
1.28661,2.2467
1.29418,2.19045
1.30175,2.20665
1.30932,2.17915
1.31689,2.190975
1.32445,2.21075
1.33202,2.19355
1.33959,2.185975
1.34716,2.1767
1.35473,2.18635
1.3623,2.1727
1.36986,2.157125
1.37743,2.180125
1.385,2.134075
1.39257,2.18765
1.40014,2.184475
1.4077,2.15655
1.41527,2.159425
1.42284,2.1438
1.43041,2.166575
1.43798,2.160575
1.44555,2.167175
1.45311,2.15645
1.46068,2.15975
1.46825,2.1816
1.47582,2.146
1.48339,2.1903
1.49096,2.136425
1.49852,2.0984
1.50609,2.125475
1.51366,2.107725
1.52123,2.1148
1.5288,2.104475
1.53637,2.10955
1.54393,2.135925
1.5515,2.1264
1.55907,2.098825
1.56664,2.1186
1.57421,2.105
1.58178,2.1119
1.58934,2.138025
1.59691,2.105125
1.60448,2.09135
1.61205,2.12595
1.61962,2.0997
1.62719,2.08735
1.63475,2.131025
1.64232,2.066175
1.64989,2.066525
1.65746,2.02995
1.66503,2.074375
1.6726,2.1152
1.68016,2.0481
1.68773,2.095825
1.6953,2.088975
1.70287,2.085325
1.71044,2.0604
1.71801,2.06755
1.72557,2.0506
1.73314,2.038525
1.74071,2.07085
1.74828,2.0658
1.75585,2.041575
1.76342,2.0295
1.77098,1.984775
1.77855,1.9885
1.78612,1.964225
1.79369,2.011075
1.80126,1.968125
1.80883,1.968425
1.81639,1.98735
1.82396,1.97835
1.83153,1.9697
1.8391,1.934225
1.84667,1.938775
1.85423,1.945975
1.8618,1.927225
1.86937,1.929975
1.87694,1.908375
1.88451,1.91785
1.89208,1.890075
1.89964,1.862425
1.90721,1.837775
1.91478,1.829475
1.92235,1.824675
1.92992,1.861725
1.93749,1.8629
1.94505,1.8368
1.95262,1.813275
1.96019,1.82565
1.96776,1.860875
1.97533,1.841175
1.9829,1.8226
1.99046,1.787
1.99803,1.82725
2.0056,1.798975
2.01317,1.7963
2.02074,1.79775
2.02831,1.774025
2.03587,1.756375
2.04344,1.798
2.05101,1.797025
2.05858,1.755575
2.06615,1.758875
2.07372,1.751975
2.08128,1.7364
2.08885,1.7846
2.09642,1.754225
2.10399,1.797925
2.11156,1.74755
2.11913,1.74775
2.12669,1.74805
2.13426,1.7502
2.14183,1.7238
2.1494,1.691225
2.15697,1.72685
2.16454,1.728925
2.1721,1.693075
2.17967,1.741175
2.18724,1.70915
2.19481,1.6852
2.20238,1.704875
2.20995,1.651025
2.21751,1.736925
2.22508,1.720375
2.23265,1.715
2.24022,1.729375
2.24779,1.7686
2.25536,1.6832
2.26292,1.681925
2.27049,1.691825
2.27806,1.6064
2.28563,1.7201
2.2932,1.703625
2.30077,1.635175
2.30833,1.673725
2.3159,1.6874
2.32347,1.631325
2.33104,1.656325
2.33861,1.67935
2.34617,1.5849
2.35374,1.6771
2.36131,1.661575
2.36888,1.67305
2.37645,1.6618
2.38402,1.582375
2.39158,1.528075
2.39915,1.641625
2.40672,1.62955
2.41429,1.556975
2.42186,1.5863
2.42943,1.57125
2.43699,1.617775
2.44456,1.56035
2.45213,1.530725
2.4597,1.624925
2.46727,1.56865
2.47484,1.573025
2.4824,1.519675
2.48997,1.561125
2.49754,1.540075
2.50511,1.5476
2.51268,1.531525
2.52025,1.5606
2.52781,1.550325
2.53538,1.620625
2.54295,1.63715
2.55052,1.598875
2.55809,1.595075
2.56566,1.5508
2.57322,1.59835
2.58079,1.623475
2.58836,1.6099
2.59593,1.601575
2.6035,1.668925
2.61107,1.65935
2.61863,1.634775
2.6262,1.62325
2.63377,1.617925
2.64134,1.61355
2.64891,1.595425
2.65648,1.640775
2.66404,1.61185
2.67161,1.6127
2.67918,1.640825
2.68675,1.6497
2.69432,1.686425
2.70189,1.623775
2.70945,1.632
2.71702,1.59855
2.72459,1.657075
2.73216,1.6333
2.73973,1.670075
2.7473,1.6082
2.75486,1.638025
2.76243,1.59155
2.77,1.587425
2.77757,1.667275
2.78514,1.66925
2.7927,1.635725
2.80027,1.578825
2.80784,1.560325
2.81541,1.611875
2.82298,1.6311
2.83055,1.543275
2.83811,1.549175
2.84568,1.593
2.85325,1.5835
2.86082,1.517225
2.86839,1.567975
2.87596,1.54905
2.88352,1.512275
2.89109,1.5781
2.89866,1.5064
2.90623,1.596625
2.9138,1.57815
2.92137,1.58395
2.92893,1.56405
2.9365,1.4953
2.94407,1.574075
2.95164,1.576225
2.95921,1.507275
2.96678,1.53955
2.97434,1.543525
2.98191,1.509225
2.98948,1.589725
2.99705,1.553875
3.00462,1.570325
3.01219,1.5412
3.01975,1.564725
3.02732,1.585125
3.03489,1.574225
3.04246,1.530625
3.05003,1.560125
3.0576,1.5583
3.06516,1.5914
3.07273,1.616825
3.0803,1.558875
3.08787,1.6133
3.09544,1.6015
3.10301,1.58735
3.11057,1.6266
3.11814,1.6503
3.12571,1.6204
3.13328,1.653525
3.14085,1.69605
3.14842,1.676075
3.15598,1.69755
3.16355,1.726125
3.17112,1.70075
3.17869,1.7833
3.18626,1.708825
3.19383,1.788575
3.20139,1.756375
3.20896,1.789175
3.21653,1.8194
3.2241,1.79575
3.23167,1.865
3.23923,1.8328
3.2468,1.8638
3.25437,1.8991
3.26194,1.86475
3.26951,1.8866
3.27708,1.855075
3.28464,1.904775
3.29221,1.87885
3.29978,1.905125
3.30735,1.95445
3.31492,1.95275
3.32249,1.947475
3.33005,1.914125
3.33762,1.988575
3.34519,1.99185
3.35276,1.97135
3.36033,2.00335
3.3679,2.016725
3.37546,2.014575
3.38303,2.026675
3.3906,2.072975
3.39817,2.073325
3.40574,2.0722
3.41331,2.0659
3.42087,2.096825
3.42844,2.1062
3.43601,2.14725
3.44358,2.1721
3.45115,2.191575
3.45872,2.189125
3.46628,2.2478
3.47385,2.235525
3.48142,2.299225
3.48899,2.286775
3.49656,2.3263
3.50413,2.3649
3.51169,2.358275
3.51926,2.38895
3.52683,2.40175
3.5344,2.412525
3.54197,2.4442
3.54954,2.46225
3.5571,2.47835
3.56467,2.49815
3.57224,2.503525
3.57981,2.5048
3.58738,2.515925
3.59495,2.550275
3.60251,2.5724
3.61008,2.592675
3.61765,2.58255
3.62522,2.5867
3.63279,2.6096
3.64036,2.62725
3.64792,2.608925
3.65549,2.61245
3.66306,2.6053
3.67063,2.617525
3.6782,2.621275
3.68577,2.61505
3.69333,2.635275
3.7009,2.63305
3.70847,2.619675
3.71604,2.604375
3.72361,2.596025
3.73117,2.57935
3.73874,2.561475
3.74631,2.581225
3.75388,2.551625
3.76145,2.551825
3.76902,2.5362
3.77658,2.517425
3.78415,2.512
3.79172,2.50815
3.79929,2.50195
3.80686,2.494075
3.81443,2.44335
3.82199,2.44695
3.82956,2.42025
3.83713,2.3961
3.8447,2.438375
3.85227,2.390675
3.85984,2.37425
3.8674,2.365225
3.87497,2.34465
3.88254,2.316975
3.89011,2.3102
3.89768,2.28535
3.90525,2.26935
3.91281,2.26435
3.92038,2.268775
3.92795,2.233375
3.93552,2.19345
3.94309,2.2265
3.95066,2.177625
3.95822,2.194275
3.96579,2.142775
3.97336,2.1289
3.98093,2.1425
3.9885,2.142175
3.99607,2.13155
4.00363,2.093025
4.0112,2.1012
4.01877,2.04565
4.02634,2.113275
4.03391,2.075125
4.04148,2.046175
4.04904,2.023375
4.05661,2.01765
4.06418,2.0084
4.07175,1.98635
4.07932,2.00585
4.08689,1.94355
4.09445,1.941625
4.10202,1.97855
4.10959,1.93035
4.11716,1.96245
4.12473,1.90615
4.1323,1.877875
4.13986,1.898425
4.14743,1.896625
4.155,1.93035
4.16257,1.84945
4.17014,1.888925
4.1777,1.8598
4.18527,1.8768
4.19284,1.8349
4.20041,1.883
4.20798,1.90155
4.21555,1.8875
4.22311,1.87645
4.23068,1.9036
4.23825,1.92855
4.24582,1.871175
4.25339,1.93845
4.26096,1.924975
4.26852,1.90625
4.27609,1.957525
4.28366,1.9267
4.29123,2.0051
4.2988,1.97075
4.30637,1.990375
4.31393,2.02455
4.3215,2.050225
4.32907,2.063225
4.33664,2.10915
4.34421,2.0648
4.35178,2.112825
4.35934,2.0985
4.36691,2.1175
4.37448,2.1121
4.38205,2.141075
4.38962,2.205275
4.39719,2.205875
4.40475,2.186325
4.41232,2.1953
4.41989,2.195675
4.42746,2.253475
4.43503,2.2571
4.4426,2.235375
4.45016,2.24335
4.45773,2.2899
4.4653,2.291925
4.47287,2.24115
4.48044,2.294325
4.48801,2.278325
4.49557,2.28785
4.50314,2.2781
4.51071,2.29415
4.51828,2.278375
4.52585,2.295775
4.53342,2.2671
4.54098,2.267025
4.54855,2.242775
4.55612,2.2641
4.56369,2.28005
4.57126,2.26765
4.57883,2.205325
4.58639,2.2227
4.59396,2.2057
4.60153,2.21545
4.6091,2.20545
4.61667,2.191725
4.62423,2.204075
4.6318,2.1269
4.63937,2.1851
4.64694,2.1301
4.65451,2.136275
4.66208,2.0843
4.66964,2.101675
4.67721,2.04625
4.68478,2.057075
4.69235,1.985
4.69992,2.04265
4.70749,2.00155
4.71505,2.0013
4.72262,1.946975
4.73019,1.9571
4.73776,1.932825
4.74533,1.91525
4.7529,1.898525
4.76046,1.897
4.76803,1.862675
4.7756,1.87465
4.78317,1.851525
4.79074,1.891075
4.79831,1.84905
4.80587,1.873225
4.81344,1.838625
4.82101,1.83305
4.82858,1.8532
4.83615,1.8499
4.84372,1.800825
4.85128,1.82705
4.85885,1.84515
4.86642,1.79775
4.87399,1.81925
4.88156,1.769025
4.88913,1.786525
4.89669,1.767375
4.90426,1.833825
4.91183,1.825025
4.9194,1.83145
4.92697,1.8086
4.93454,1.782525
4.9421,1.818475
4.94967,1.73665
4.95724,1.815675
4.96481,1.7753
4.97238,1.7793
4.97995,1.785375
4.98751,1.79495
4.99508,1.785525
5.00265,1.80575
5.01022,1.790075
5.01779,1.82305
5.02536,1.74285
5.03292,1.766775
5.04049,1.8065
5.04806,1.78775
5.05563,1.7903
5.0632,1.7473
5.07077,1.8113
5.07833,1.81375
5.0859,1.7902
5.09347,1.78565
5.10104,1.801525
5.10861,1.7883
5.11617,1.818425
5.12374,1.8424
5.13131,1.820875
5.13888,1.75615
5.14645,1.8308
5.15402,1.8129
5.16158,1.8368
5.16915,1.759775
5.17672,1.8438
5.18429,1.854175
5.19186,1.88525
5.19943,1.9023
5.20699,1.858
5.21456,1.86185
5.22213,1.9064
5.2297,1.922625
5.23727,1.8977
5.24484,1.9447
5.2524,1.923625
5.25997,1.910675
5.26754,1.926075
5.27511,1.945
5.28268,1.981225
5.29025,2.0019
5.29781,1.965775
5.30538,1.999075
5.31295,2.002175
5.32052,1.985025
5.32809,2.0437
5.33566,2.02585
5.34322,1.99175
5.35079,2.04815
5.35836,2.059375
5.36593,2.031925
5.3735,2.018
5.38107,2.036675
5.38863,1.994925
5.3962,2.0136
5.40377,2.01035
5.41134,2.06135
5.41891,2.067625
5.42648,2.052375
5.43404,2.067225
5.44161,2.040425
5.44918,2.082525
5.45675,2.06025
5.46432,2.047925
5.47189,2.03455
5.47945,2.0609
5.48702,2.063525
5.49459,2.053275
5.50216,2.03495
5.50973,2.082325
5.5173,2.100175
5.52486,2.05395
5.53243,2.0679
5.54,2.0504
5.54757,2.0364
5.55514,2.0555
5.5627,2.059625
5.57027,2.0339
5.57784,2.056625
5.58541,2.00825
5.59298,2.01895
5.60055,2.01955
5.60811,2.0647
5.61568,2.095325
5.62325,2.089675
5.63082,2.059325
5.63839,2.0648
5.64596,2.0972
5.65352,2.101525
5.66109,2.085975
5.66866,2.13095
5.67623,2.111575
5.6838,2.1186
5.69137,2.104175
5.69893,2.1131
5.7065,2.149825
5.71407,2.14805
5.72164,2.184625
5.72921,2.18695
5.73678,2.156875
5.74434,2.21685
5.75191,2.221325
5.75948,2.24505
5.76705,2.2201
5.77462,2.217825
5.78219,2.272375
5.78975,2.27615
5.79732,2.286425
5.80489,2.2849
5.81246,2.316825
5.82003,2.311225
5.8276,2.3365
5.83516,2.32025
5.84273,2.3237
5.8503,2.37445
5.85787,2.36915
5.86544,2.399025
5.87301,2.387875
5.88057,2.401925
5.88814,2.394075
5.89571,2.416475
5.90328,2.437525
5.91085,2.407175
5.91842,2.44345
5.92598,2.441175
5.93355,2.48265
5.94112,2.493175
5.94869,2.48695
5.95626,2.4804
5.96383,2.503475
5.97139,2.491975
5.97896,2.51095
5.98653,2.5254
5.9941,2.531525
6.00167,2.549875
6.00923,2.5532
6.0168,2.570375
6.02437,2.580175
6.03194,2.57905
6.03951,2.614925
6.04708,2.60495
6.05464,2.631525
6.06221,2.648325
6.06978,2.688825
6.07735,2.6804
6.08492,2.700475
6.09249,2.730675
6.10005,2.733925
6.10762,2.7361
6.11519,2.779275
6.12276,2.782375
6.13033,2.818275
6.1379,2.829825
6.14546,2.8535
6.15303,2.873525
6.1606,2.886475
6.16817,2.898175
6.17574,2.9308
6.18331,2.94755
6.19087,2.98255
6.19844,2.984075
6.20601,3.012525
6.21358,3.028525
6.22115,3.03895
6.22872,3.058125
6.23628,3.069825
6.24385,3.0916
6.25142,3.098725
6.25899,3.124025
6.26656,3.12955
6.27413,3.1441
6.28169,3.160375
6.28926,3.164975
6.29683,3.1897
6.3044,3.192375
6.31197,3.2038
6.31954,3.20745
6.3271,3.210325
6.33467,3.219075
6.34224,3.232725
6.34981,3.22705
6.35738,3.242875
6.36495,3.240025
6.37251,3.24605
6.38008,3.248425
6.38765,3.23995
6.39522,3.24835
6.40279,3.244325
6.41036,3.24415
6.41792,3.24795
6.42549,3.232875
6.43306,3.241625
6.44063,3.231275
6.4482,3.221875
6.45577,3.222375
6.46333,3.2102
6.4709,3.200375
6.47847,3.1867
6.48604,3.172575
6.49361,3.15635
6.50117,3.1681
6.50874,3.1413
6.51631,3.133875
6.52388,3.121025
6.53145,3.111625
6.53902,3.0918
6.54658,3.07305
6.55415,3.0653
6.56172,3.0462
6.56929,3.0327
6.57686,3.00855
6.58443,2.993375
6.59199,2.9749
6.59956,2.965975
6.60713,2.9584
6.6147,2.939775
6.62227,2.927025
6.62984,2.911125
6.6374,2.890125
6.64497,2.870525
6.65254,2.868
6.66011,2.855025
6.66768,2.838725
6.67525,2.84105
6.68281,2.84045
6.69038,2.82405
6.69795,2.816575
6.70552,2.81565
6.71309,2.824525
6.72066,2.828225
6.72822,2.8211
6.73579,2.83225
6.74336,2.843425
6.75093,2.851975
6.7585,2.863425
6.76607,2.859425
6.77363,2.88045
6.7812,2.878025
6.78877,2.89485
6.79634,2.8963
6.80391,2.914725
6.81148,2.915125
6.81904,2.927475
6.82661,2.932625
6.83418,2.92885
6.84175,2.951375
6.84932,2.94465
6.85689,2.951775
6.86445,2.964475
6.87202,2.97715
6.87959,2.97485
6.88716,2.97975
6.89473,2.992175
6.9023,2.989025
6.90986,2.998125
6.91743,2.991275
6.925,2.992375
6.93257,3.000525
6.94014,2.986725
6.9477,2.990625
6.95527,2.970825
6.96284,2.985925
6.97041,2.979175
6.97798,2.974425
6.98555,2.9749
6.99311,2.972575
7.00068,2.9532
7.00825,2.96975
7.01582,2.9576
7.02339,2.939475
7.03096,2.935675
7.03852,2.9173
7.04609,2.90895
7.05366,2.901675
7.06123,2.877475
7.0688,2.87385
7.07637,2.86685
7.08393,2.8274
7.0915,2.82375
7.09907,2.790275
7.10664,2.784875
7.11421,2.78175
7.12178,2.75555
7.12934,2.71745
7.13691,2.69695
7.14448,2.68435
7.15205,2.6675
7.15962,2.63945
7.16719,2.6189
7.17475,2.600975
7.18232,2.563725
7.18989,2.5262
7.19746,2.5355
7.20503,2.510025
7.2126,2.47055
7.22016,2.4383
7.22773,2.430175
7.2353,2.3743
7.24287,2.3426
7.25044,2.33745
7.25801,2.30995
7.26557,2.291775
7.27314,2.26115
7.28071,2.242075
7.28828,2.2213
7.29585,2.1923
7.30342,2.1913
7.31098,2.110175
7.31855,2.0981
7.32612,2.0801
7.33369,2.0339
7.34126,2.03365
7.34883,1.98115
7.35639,2.0012
7.36396,1.964375
7.37153,1.98315
7.3791,1.95635
7.38667,1.9497
7.39423,1.9096
7.4018,1.875075
7.40937,1.848875
7.41694,1.85995
7.42451,1.891575
7.43208,1.91855
7.43964,1.84165
7.44721,1.868025
7.45478,1.868675
7.46235,1.907525
7.46992,1.857575
7.47749,1.866175
7.48505,1.865375
7.49262,1.854325
7.50019,1.84675
7.50776,1.87855
7.51533,1.852125
7.5229,1.863925
7.53046,1.88795
7.53803,1.861325
7.5456,1.89065
7.55317,1.89925
7.56074,1.8603
7.56831,1.84985
7.57587,1.91365
7.58344,1.8915
7.59101,1.86945
7.59858,1.86755
7.60615,1.85475
7.61372,1.86295
7.62128,1.8493
7.62885,1.852325
7.63642,1.854625
7.64399,1.830475
7.65156,1.840075
7.65913,1.852375
7.66669,1.794725
7.67426,1.828125
7.68183,1.779675
7.6894,1.783025
7.69697,1.7176
7.70454,1.80395
7.7121,1.75245
7.71967,1.784675
7.72724,1.733175
7.73481,1.78145
7.74238,1.696625
7.74995,1.737275
7.75751,1.72915
7.76508,1.7131
7.77265,1.6573
7.78022,1.73675
7.78779,1.70475
7.79536,1.661
7.80292,1.65795
7.81049,1.611825
7.81806,1.631825
7.82563,1.553275
7.8332,1.600225
7.84077,1.522875
7.84833,1.50695
7.8559,1.5017
7.86347,1.4914
7.87104,1.50495
7.87861,1.468125
7.88617,1.485375
7.89374,1.44955
7.90131,1.37665
7.90888,1.421825
7.91645,1.298275
7.92402,1.464075
7.93158,1.445025
7.93915,1.3203
7.94672,1.285425
7.95429,1.351625
7.96186,1.2428
7.96943,1.303575
7.97699,1.25805
7.98456,1.342875
7.99213,1.300275
7.9997,1.280375
8.00727,1.272875
8.01484,1.266025
8.0224,1.145
8.02997,1.148625
8.03754,1.222475
8.04511,1.2082
8.05268,1.137775
8.06025,1.15666
8.06781,1.2024
8.07538,1.225575
8.08295,1.19575
8.09052,1.266375
8.09809,1.226625
8.10566,1.22745
8.11322,1.245175
8.12079,1.175575
8.12836,1.17945
8.13593,1.14505
8.1435,1.259125
8.15107,1.323925
8.15863,1.189175
8.1662,1.2675
8.17377,1.26315
8.18134,1.303575
8.18891,1.178975
8.19648,1.07535
8.20404,1.077023
8.21161,1.131575
8.21918,1.27065
8.22675,1.156125
8.23432,1.0972
8.24189,1.20275
8.24945,1.098373
8.25702,1.191
8.26459,1.15045
8.27216,1.066672
8.27973,1.18065
8.2873,1.227125
8.29486,1.140285
8.30243,1.206635
8.31,1.123525
8.31757,1.10965
8.32514,1.143647
8.3327,1.299525
8.34027,1.127775
8.34784,1.178725
8.35541,1.17285
8.36298,1.200925
8.37055,1.181475
8.37811,1.1322
8.38568,1.145
8.39325,1.20575
8.40082,1.090185
8.40839,1.139075
8.41596,1.105225
8.42352,1.169225
8.43109,1.15725
8.43866,1.237
8.44623,1.17
8.4538,1.325775
8.46137,1.217675
8.46893,1.102485
8.4765,1.104197
8.48407,1.1611
8.49164,1.08646
8.49921,1.118972
8.50678,1.24565
8.51434,1.138573
8.52191,1.204075
8.52948,1.09515
8.53705,1.1971
8.54462,1.16845
8.55219,1.16495
8.55975,1.093975
8.56732,1.054758
8.57489,1.167822
8.58246,1.011208
8.59003,1.16545
8.5976,1.120635
8.60516,1.10265
8.61273,1.128825
8.6203,1.201275
8.62787,1.182175
8.63544,1.181675
8.64301,1.094435
8.65057,1.15305
8.65814,1.139935
8.66571,1.10825
8.67328,1.120775
8.68085,1.14835
8.68842,1.072198
8.69598,1.189175
8.70355,1.186425
8.71112,1.1809
8.71869,1.04801
8.72626,1.15445
8.73383,1.06161
8.74139,1.107533
8.74896,1.069125
8.75653,1.1506
8.7641,0.998918
8.77167,1.094748
8.77923,1.12141
8.7868,0.991425
8.79437,1.189835
8.80194,1.113922
8.80951,0.99891
8.81708,1.083625
8.82464,1.064685
8.83221,0.830852
8.83978,1.09641
8.84735,1.06806
8.85492,1.0909
8.86249,1.096497
8.87005,1.072185
8.87762,1.0857
8.88519,0.961895
8.89276,1.005913
8.90033,1.02816
8.9079,1.0725
8.91546,0.996917
8.92303,0.899425
8.9306,1.059525
8.93817,0.975772
8.94574,1.071725
8.95331,0.916165
8.96087,0.98807
8.96844,0.984133
8.97601,0.896367
8.98358,1.022647
8.99115,0.935958
8.99872,0.870145
9.00628,1.01871
9.01385,0.947398
9.02142,0.979117
9.02899,0.917555
9.03656,1.005918
9.04413,0.964333
9.05169,0.937345
9.05926,0.937345
9.06683,0.926955
9.0744,1.040772
9.08197,0.9832
9.08954,0.95683
9.0971,0.957328
9.10467,0.882933
9.11224,0.921658
9.11981,1.06911
9.12738,0.916162
9.13495,0.88831
9.14251,0.948745
9.15008,1.044125
9.15765,0.87015
9.16522,0.928675
9.17279,0.95046
9.18036,0.96189
9.18792,0.956835
9.19549,0.90138
