KEV,INTENSITY
0.37773,3.974983
0.38513,3.920567
0.39254,3.866033
0.39995,3.811333
0.40735,3.762967
0.41476,3.716367
0.42217,3.672467
0.42957,3.6217
0.43698,3.579633
0.44439,3.532717
0.45179,3.485283
0.4592,3.44895
0.4666,3.419917
0.47401,3.376583
0.48142,3.34435
0.48882,3.302283
0.49623,3.270917
0.50364,3.230117
0.51104,3.19415
0.51845,3.17175
0.52586,3.1392
0.53326,3.116933
0.54067,3.09485
0.54807,3.064867
0.55548,3.04575
0.56289,3.008217
0.57029,3.0025
0.5777,2.9703
0.58511,2.949017
0.59251,2.93085
0.59992,2.9113
0.60733,2.8865
0.61473,2.883083
0.62214,2.851133
0.62955,2.832933
0.63695,2.806983
0.64436,2.801417
0.65176,2.799267
0.65917,2.791817
0.66658,2.7594
0.67398,2.727317
0.68139,2.719117
0.6888,2.72075
0.6962,2.6992
0.70361,2.6834
0.71102,2.661983
0.71842,2.663883
0.72583,2.650933
0.73324,2.62955
0.74064,2.6268
0.74805,2.602567
0.75545,2.58365
0.76286,2.584967
0.77027,2.583567
0.77767,2.5841
0.78508,2.575383
0.79249,2.540767
0.79989,2.550633
0.8073,2.5099
0.81471,2.512967
0.82211,2.504483
0.82952,2.501367
0.83693,2.485883
0.84433,2.480083
0.85174,2.483667
0.85914,2.47035
0.86655,2.455067
0.87396,2.4591
0.88136,2.435333
0.88877,2.441783
0.89618,2.436633
0.90358,2.4147
0.91099,2.419333
0.9184,2.374633
0.9258,2.3997
0.93321,2.3636
0.94061,2.380517
0.94802,2.359967
0.95543,2.379933
0.96283,2.344883
0.97024,2.36005
0.97765,2.357933
0.98505,2.3237
0.99246,2.313067
0.99987,2.295833
1.00727,2.2989
1.01468,2.2873
1.02209,2.233083
1.02949,2.218583
1.0369,2.200833
1.0443,2.163883
1.05171,2.1946
1.05912,2.23025
1.06652,2.228617
1.07393,2.24155
1.08134,2.25555
1.08874,2.211117
1.09615,2.2129
1.10356,2.194717
1.11096,2.1742
1.11837,2.159017
1.12578,2.15955
1.13318,2.157933
1.14059,2.141183
1.14799,2.138367
1.1554,2.13615
1.16281,2.125483
1.17021,2.123083
1.17762,2.102367
1.18503,2.0996
1.19243,2.086033
1.19984,2.055617
1.20725,2.0839
1.21465,2.056583
1.22206,2.0508
1.22947,2.006783
1.23687,2.005383
1.24428,1.9807
1.25168,1.986833
1.25909,2.009117
1.2665,1.955617
1.2739,1.906717
1.28131,1.939033
1.28872,1.93125
1.29612,1.934933
1.30353,1.9255
1.31094,1.895367
1.31834,1.873733
1.32575,1.880667
1.33316,1.9163
1.34056,1.83945
1.34797,1.8485
1.35537,1.848967
1.36278,1.860567
1.37019,1.836667
1.37759,1.799867
1.385,1.782467
1.39241,1.80065
1.39981,1.780417
1.40722,1.834217
1.41463,1.83145
1.42203,1.77235
1.42944,1.813033
1.43684,1.82465
1.44425,1.80365
1.45166,1.758083
1.45906,1.77055
1.46647,1.7849
1.47388,1.753817
1.48128,1.789217
1.48869,1.803633
1.4961,1.755317
1.5035,1.743183
1.51091,1.732983
1.51832,1.755133
1.52572,1.74615
1.53313,1.776617
1.54053,1.744733
1.54794,1.778033
1.55535,1.7283
1.56275,1.713383
1.57016,1.686217
1.57757,1.712383
1.58497,1.709833
1.59238,1.742733
1.59979,1.729533
1.60719,1.73375
1.6146,1.685883
1.62201,1.741833
1.62941,1.7058
1.63682,1.749133
1.64422,1.760117
1.65163,1.713517
1.65904,1.776983
1.66644,1.776567
1.67385,1.729933
1.68126,1.770683
1.68866,1.746767
1.69607,1.7583
1.70348,1.708367
1.71088,1.743817
1.71829,1.773217
1.7257,1.776083
1.7331,1.748217
1.74051,1.758733
1.74791,1.763083
1.75532,1.6968
1.76273,1.712967
1.77013,1.76115
1.77754,1.782933
1.78495,1.710817
1.79235,1.710983
1.79976,1.723367
1.80717,1.728483
1.81457,1.6558
1.82198,1.625467
1.82939,1.6969
1.83679,1.651567
1.8442,1.61675
1.8516,1.591517
1.85901,1.56365
1.86642,1.598267
1.87382,1.558117
1.88123,1.5668
1.88864,1.48405
1.89604,1.506583
1.90345,1.489533
1.91086,1.508067
1.91826,1.4082
1.92567,1.42595
1.93307,1.430317
1.94048,1.354133
1.94789,1.275417
1.95529,1.316767
1.9627,1.39795
1.97011,1.364117
1.97751,1.3729
1.98492,1.37185
1.99233,1.358383
1.99973,1.366717
2.00714,1.249582
2.01455,1.33285
2.02195,1.312383
2.02936,1.336883
2.03676,1.362183
2.04417,1.32575
2.05158,1.232823
2.05898,1.331267
2.06639,1.318683
2.0738,1.29135
2.0812,1.260873
2.08861,1.332433
2.09602,1.256217
2.10342,1.273533
2.11083,1.308517
2.11824,1.3419
2.12564,1.294183
2.13305,1.266717
2.14045,1.28345
2.14786,1.287483
2.15527,1.261983
2.16267,1.346817
2.17008,1.304698
2.17749,1.358967
2.18489,1.274767
2.1923,1.293017
2.19971,1.350467
2.20711,1.368133
2.21452,1.35785
2.22193,1.394667
2.22933,1.3787
2.23674,1.3517
2.24414,1.351
2.25155,1.399767
2.25896,1.333767
2.26636,1.42045
2.27377,1.39185
2.28118,1.37725
2.28858,1.441867
2.29599,1.375033
2.3034,1.417317
2.3108,1.418083
2.31821,1.441033
2.32561,1.366083
2.33302,1.361433
2.34043,1.397267
2.34783,1.404217
2.35524,1.349433
2.36265,1.40545
2.37005,1.3225
2.37746,1.260383
2.38487,1.331633
2.39227,1.3064
2.39968,1.228817
2.40709,1.269333
2.41449,1.2505
2.4219,1.234317
2.4293,1.252783
2.43671,1.150748
2.44412,1.164207
2.45152,1.263033
2.45893,1.242083
2.46634,1.183017
2.47374,1.249317
2.48115,1.24755
2.48856,1.16525
2.49596,1.168233
2.50337,1.198133
2.51078,1.20665
2.51818,1.232867
2.52559,1.185465
2.53299,1.061328
2.5404,1.159957
2.54781,1.1682
2.55521,1.129557
2.56262,1.202148
2.57003,1.19264
2.57743,1.207917
2.58484,1.167117
2.59225,1.21059
2.59965,1.23795
2.60706,1.18765
2.61447,1.261583
2.62187,1.19475
2.62928,1.182123
2.63668,1.14069
2.64409,1.260117
2.6515,1.213483
2.6589,1.102957
2.66631,1.13099
2.67372,1.13925
2.68112,1.150157
2.68853,1.162732
2.69594,1.164
2.70334,1.204917
2.71075,1.218767
2.71816,1.218057
2.72556,1.155883
2.73297,1.23225
2.74037,1.110983
2.74778,1.077932
2.75519,1.062707
2.76259,1.16265
2.77,1.162583
2.77741,1.199057
2.78481,1.116667
2.79222,1.153133
2.79963,1.15159
2.80703,1.213917
2.81444,1.001143
2.82184,1.181567
2.82925,1.048767
2.83666,1.18765
2.84406,1.149583
2.85147,1.143175
2.85888,1.058542
2.86628,1.130333
2.87369,1.109965
2.8811,1.125267
2.8885,1.11764
2.89591,1.060807
2.90332,0.921958
2.91072,0.969757
2.91813,0.95585
2.92553,1.019977
2.93294,1.085682
2.94035,1.04943
2.94775,1.106498
2.95516,1.00919
2.96257,1.103207
2.96997,1.108023
2.97738,1.0757
2.98479,1.029218
2.99219,1.069733
2.9996,1.15985
3.00701,1.104857
3.01441,1.044547
3.02182,1.117483
3.02922,1.16935
3.03663,1.052282
3.04404,1.056738
3.05144,1.104867
3.05885,1.08925
3.06626,1.039422
3.07366,1.135433
3.08107,0.977918
3.08848,1.084363
3.09588,1.099598
3.10329,1.140033
3.1107,1.166173
3.1181,1.183633
3.12551,1.075588
3.13291,1.107792
3.14032,1.1407
3.14773,1.094205
3.15513,1.135715
3.16254,1.19055
3.16995,1.177665
3.17735,1.232983
3.18476,1.13465
3.19217,1.288067
3.19957,1.328833
3.20698,1.281367
3.21439,1.29465
3.22179,1.2995
3.2292,1.388167
3.2366,1.341567
3.24401,1.36955
3.25142,1.382433
3.25882,1.424767
3.26623,1.43125
3.27364,1.385867
3.28104,1.44185
3.28845,1.441167
3.29586,1.46945
3.30326,1.492817
3.31067,1.478317
3.31807,1.46885
3.32548,1.446317
3.33289,1.493017
3.34029,1.491417
3.3477,1.528683
3.35511,1.515283
3.36251,1.47695
3.36992,1.5295
3.37733,1.463683
3.38473,1.548683
3.39214,1.5644
3.39955,1.5494
3.40695,1.499383
3.41436,1.489233
3.42176,1.565983
3.42917,1.569917
3.43658,1.574917
3.44398,1.566
3.45139,1.6141
3.4588,1.622233
3.4662,1.669433
3.47361,1.64475
3.48102,1.710667
3.48842,1.756833
3.49583,1.752667
3.50324,1.851417
3.51064,1.875317
3.51805,1.893067
3.52545,1.9568
3.53286,1.9531
3.54027,2.0173
3.54767,2.027083
3.55508,2.0637
3.56249,2.130917
3.56989,2.156583
3.5773,2.1914
3.58471,2.188767
3.59211,2.23015
3.59952,2.257417
3.60693,2.294433
3.61433,2.29585
3.62174,2.3189
3.62914,2.331867
3.63655,2.363217
3.64396,2.34895
3.65136,2.3884
3.65877,2.386483
3.66618,2.395583
3.67358,2.423833
3.68099,2.410133
3.6884,2.412117
3.6958,2.436183
3.70321,2.436183
3.71061,2.4403
3.71802,2.410217
3.72543,2.419683
3.73283,2.40085
3.74024,2.40355
3.74765,2.380433
3.75505,2.34725
3.76246,2.332517
3.76987,2.324383
3.77727,2.281217
3.78468,2.250433
3.79209,2.22825
3.79949,2.166383
3.8069,2.1256
3.8143,2.071283
3.82171,2.06505
3.82912,2.0988
3.83652,2.10085
3.84393,2.06755
3.85134,2.032917
3.85874,2.000883
3.86615,1.974267
3.87356,1.959483
3.88096,1.9373
3.88837,1.913283
3.89578,1.8913
3.90318,1.875917
3.91059,1.855383
3.91799,1.854833
3.9254,1.7795
3.93281,1.8035
3.94021,1.7818
3.94762,1.754633
3.95503,1.784283
3.96243,1.7557
3.96984,1.672467
3.97725,1.7362
3.98465,1.7635
3.99206,1.714717
3.99947,1.762967
4.00687,1.748267
4.01428,1.765633
4.02168,1.807633
4.02909,1.722567
4.0365,1.72835
4.0439,1.7178
4.05131,1.732533
4.05872,1.687033
4.06612,1.746233
4.07353,1.6762
4.08094,1.685117
4.08834,1.6691
4.09575,1.632417
4.10316,1.611133
4.11056,1.579817
4.11797,1.55205
4.12537,1.589417
4.13278,1.521417
4.14019,1.528183
4.14759,1.51695
4.155,1.52475
4.16241,1.470733
4.16981,1.442533
4.17722,1.471067
4.18463,1.404533
4.19203,1.368167
4.19944,1.408933
4.20684,1.321533
4.21425,1.3779
4.22166,1.3642
4.22906,1.365167
4.23647,1.2065
4.24388,1.32635
4.25128,1.369183
4.25869,1.30849
4.2661,1.335433
4.2735,1.393517
4.28091,1.3245
4.28832,1.352333
4.29572,1.41605
4.30313,1.39435
4.31053,1.455533
4.31794,1.498217
4.32535,1.481667
4.33275,1.450483
4.34016,1.525667
4.34757,1.5896
4.35497,1.636033
4.36238,1.621733
4.36979,1.741433
4.37719,1.6809
4.3846,1.732333
4.39201,1.775533
4.39941,1.804117
4.40682,1.785633
4.41422,1.77285
4.42163,1.865483
4.42904,1.891883
4.43644,1.9075
4.44385,1.941683
4.45126,1.90545
4.45866,1.956733
4.46607,1.951817
4.47348,1.972667
4.48088,1.9623
4.48829,1.987033
4.4957,2.020083
4.5031,2.016
4.51051,2.050833
4.51791,2.001617
4.52532,2.00085
4.53273,1.9968
4.54013,2.0392
4.54754,2.032717
4.55495,1.976217
4.56235,1.992983
4.56976,1.982467
4.57717,1.97685
4.58457,1.951267
4.59198,1.929183
4.59939,1.930167
4.60679,1.913717
4.6142,1.892883
4.6216,1.849217
4.62901,1.85265
4.63642,1.821533
4.64382,1.825117
4.65123,1.793217
4.65864,1.748283
4.66604,1.710583
4.67345,1.683383
4.68086,1.711067
4.68826,1.665983
4.69567,1.5727
4.70307,1.632017
4.71048,1.547567
4.71789,1.59245
4.72529,1.445567
4.7327,1.447017
4.74011,1.407883
4.74751,1.377717
4.75492,1.39335
4.76233,1.337517
4.76973,1.434217
4.77714,1.367917
4.78455,1.39585
4.79195,1.42985
4.79936,1.420883
4.80676,1.377917
4.81417,1.417817
4.82158,1.43975
4.82898,1.407167
4.83639,1.441667
4.8438,1.4051
4.8512,1.412367
4.85861,1.453833
4.86602,1.4117
4.87342,1.44145
4.88083,1.421283
4.88824,1.422033
4.89564,1.397167
4.90305,1.426133
4.91045,1.4993
4.91786,1.4916
4.92527,1.477
4.93267,1.463017
4.94008,1.463317
4.94749,1.44425
4.95489,1.469717
4.9623,1.50345
4.96971,1.42375
4.97711,1.507833
4.98452,1.497583
4.99193,1.489467
4.99933,1.47855
5.00674,1.403317
5.01414,1.4467
5.02155,1.44445
5.02896,1.411233
5.03636,1.3995
5.04377,1.421833
5.05118,1.3859
5.05858,1.4192
5.06599,1.407683
5.0734,1.4253
5.0808,1.409933
5.08821,1.405033
5.09561,1.334433
5.10302,1.429317
5.11043,1.382033
5.11783,1.331817
5.12524,1.34175
5.13265,1.4116
5.14005,1.443517
5.14746,1.42395
5.15487,1.430683
5.16227,1.42605
5.16968,1.421767
5.17709,1.43245
5.18449,1.4946
5.1919,1.450233
5.1993,1.487233
5.20671,1.430283
5.21412,1.501267
5.22152,1.593217
5.22893,1.486767
5.23634,1.5633
5.24374,1.5576
5.25115,1.604833
5.25856,1.6384
5.26596,1.628767
5.27337,1.67695
5.28078,1.6587
5.28818,1.681533
5.29559,1.69105
5.30299,1.69015
5.3104,1.770217
5.31781,1.7814
5.32521,1.779383
5.33262,1.80795
5.34003,1.831483
5.34743,1.845983
5.35484,1.861567
5.36225,1.86385
5.36965,1.853667
5.37706,1.847767
5.38447,1.911717
5.39187,1.887583
5.39928,1.914183
5.40668,1.909767
5.41409,1.871733
5.4215,1.905867
5.4289,1.961317
5.43631,1.90365
5.44372,1.919
5.45112,1.904317
5.45853,1.9146
5.46594,1.889383
5.47334,1.8693
5.48075,1.86005
5.48816,1.847433
5.49556,1.846617
5.50297,1.8295
5.51037,1.804667
5.51778,1.825633
5.52519,1.78925
5.53259,1.7941
5.54,1.798833
5.54741,1.7182
5.55481,1.763267
5.56222,1.785717
5.56963,1.720583
5.57703,1.759117
5.58444,1.69725
5.59184,1.714933
5.59925,1.75355
5.60666,1.670733
5.61406,1.6991
5.62147,1.691383
5.62888,1.73735
5.63628,1.728933
5.64369,1.6965
5.6511,1.758183
5.6585,1.724683
5.66591,1.772683
5.67332,1.794867
5.68072,1.769517
5.68813,1.821817
5.69553,1.80395
5.70294,1.792517
5.71035,1.81835
5.71775,1.84335
5.72516,1.840117
5.73257,1.851817
5.73997,1.926383
5.74738,1.955317
5.75479,2.001933
5.76219,1.999333
5.7696,1.978333
5.77701,1.966917
5.78441,1.953383
5.79182,2.011133
5.79922,2.071
5.80663,2.125367
5.81404,2.14125
5.82144,2.1659
5.82885,2.16845
5.83626,2.151633
5.84366,2.2095
5.85107,2.18645
5.85848,2.203
5.86588,2.203517
5.87329,2.2434
5.8807,2.232517
5.8881,2.255917
5.89551,2.269133
5.90291,2.249333
5.91032,2.26445
5.91773,2.2536
5.92513,2.258417
5.93254,2.29335
5.93995,2.259017
5.94735,2.27405
5.95476,2.255883
5.96217,2.2559
5.96957,2.259333
5.97698,2.245817
5.98439,2.258633
5.99179,2.2408
5.9992,2.260983
6.0066,2.232533
6.01401,2.231933
6.02142,2.225267
6.02882,2.237767
6.03623,2.207267
6.04364,2.223533
6.05104,2.231783
6.05845,2.239733
6.06586,2.254567
6.07326,2.266
6.08067,2.25655
6.08807,2.244533
6.09548,2.256483
6.10289,2.2774
6.11029,2.303817
6.1177,2.3033
6.12511,2.323383
6.13251,2.331317
6.13992,2.351517
6.14733,2.3953
6.15473,2.4095
6.16214,2.441717
6.16955,2.457083
6.17695,2.487417
6.18436,2.518667
6.19176,2.553567
6.19917,2.584933
6.20658,2.58715
6.21398,2.639683
6.22139,2.670467
6.2288,2.705233
6.2362,2.730967
6.24361,2.751733
6.25102,2.775683
6.25842,2.805933
6.26583,2.846133
6.27324,2.869317
6.28064,2.876233
6.28805,2.9272
6.29545,2.951517
6.30286,2.967267
6.31027,2.9771
6.31767,2.99715
6.32508,3.01985
6.33249,3.027683
6.33989,3.056617
6.3473,3.060383
6.35471,3.07045
6.36211,3.077433
6.36952,3.09795
6.37693,3.088733
6.38433,3.107633
6.39174,3.108883
6.39914,3.108483
6.40655,3.119517
6.41396,3.10365
6.42136,3.109817
6.42877,3.09705
6.43618,3.084833
6.44358,3.0729
6.45099,3.0746
6.4584,3.057717
6.4658,3.039167
6.47321,3.031183
6.48061,3.012767
6.48802,2.984117
6.49543,2.9662
6.50283,2.949117
6.51024,2.922067
6.51765,2.89545
6.52505,2.873017
6.53246,2.845917
6.53987,2.8171
6.54727,2.785817
6.55468,2.75555
6.56209,2.720417
6.56949,2.7062
6.5769,2.66105
6.5843,2.636883
6.59171,2.596933
6.59912,2.555967
6.60652,2.535133
6.61393,2.495983
6.62134,2.48595
6.62874,2.445633
6.63615,2.414367
6.64356,2.394967
6.65096,2.365567
6.65837,2.322067
6.66578,2.25575
6.67318,2.252833
6.68059,2.250467
6.68799,2.275383
6.6954,2.318833
6.70281,2.321733
6.71021,2.301183
6.71762,2.319717
6.72503,2.35835
6.73243,2.353533
6.73984,2.3897
6.74725,2.397133
6.75465,2.417317
6.76206,2.439433
6.76947,2.4534
6.77687,2.48665
6.78428,2.510567
6.79168,2.538483
6.79909,2.5177
6.8065,2.557967
6.8139,2.577133
6.82131,2.5886
6.82872,2.610483
6.83612,2.632417
6.84353,2.645417
6.85094,2.661283
6.85834,2.7007
6.86575,2.726967
6.87316,2.723133
6.88056,2.749683
6.88797,2.735767
6.89537,2.761317
6.90278,2.7586
6.91019,2.759017
6.91759,2.76075
6.925,2.779233
6.93241,2.798933
6.93981,2.802
6.94722,2.7794
6.95463,2.791317
6.96203,2.777683
6.96944,2.786267
6.97684,2.777083
6.98425,2.7696
6.99166,2.77305
6.99906,2.7643
7.00647,2.760783
7.01388,2.750183
7.02128,2.7258
7.02869,2.706883
7.0361,2.6828
7.0435,2.677483
7.05091,2.65755
7.05832,2.662667
7.06572,2.624533
7.07313,2.5983
7.08053,2.572333
7.08794,2.565617
7.09535,2.53755
7.10275,2.50585
7.11016,2.493317
7.11757,2.480467
7.12497,2.448733
7.13238,2.40175
7.13979,2.375083
7.14719,2.338717
7.1546,2.3083
7.16201,2.303167
7.16941,2.225617
7.17682,2.2253
7.18422,2.1811
7.19163,2.149833
7.19904,2.115467
7.20644,2.100833
7.21385,2.047117
7.22126,1.989117
7.22866,1.9171
7.23607,1.8927
7.24348,1.898567
7.25088,1.844333
7.25829,1.79925
7.2657,1.770267
7.2731,1.705333
7.28051,1.683967
7.28791,1.640633
7.29532,1.6566
7.30273,1.610417
7.31013,1.5966
7.31754,1.556717
7.32495,1.486683
7.33235,1.47725
7.33976,1.473567
7.34717,1.395433
7.35457,1.432767
7.36198,1.413383
7.36939,1.436483
7.37679,1.395917
7.3842,1.450683
7.3916,1.445817
7.39901,1.351017
7.40642,1.407233
7.41382,1.432267
7.42123,1.459683
7.42864,1.424033
7.43604,1.44735
7.44345,1.4006
7.45086,1.426517
7.45826,1.486517
7.46567,1.479867
7.47307,1.534133
7.48048,1.5343
7.48789,1.502033
7.49529,1.541267
7.5027,1.51605
7.51011,1.522983
7.51751,1.573133
7.52492,1.58495
7.53233,1.577617
7.53973,1.548517
7.54714,1.544483
7.55455,1.55995
7.56195,1.552483
7.56936,1.574017
7.57676,1.580917
7.58417,1.520183
7.59158,1.576
7.59898,1.574433
7.60639,1.518817
7.6138,1.464433
7.6212,1.507067
7.62861,1.618717
7.63602,1.57695
7.64342,1.60775
7.65083,1.575767
7.65824,1.591083
7.66564,1.583017
7.67305,1.581533
7.68045,1.567
7.68786,1.52225
7.69527,1.560983
7.70267,1.504717
7.71008,1.485233
7.71749,1.440017
7.72489,1.454333
7.7323,1.408917
7.73971,1.486683
7.74711,1.461217
7.75452,1.392633
7.76193,1.317317
7.76933,1.384917
7.77674,1.314983
7.78414,1.316367
7.79155,1.260533
7.79896,1.2461
7.80636,1.267333
7.81377,1.227883
7.82118,1.241633
7.82858,1.135323
7.83599,1.16374
7.8434,1.007672
7.8508,1.038908
7.85821,1.061895
7.86561,1.064538
7.87302,0.915467
7.88043,1.011148
7.88783,0.945035
7.89524,1.012473
7.90265,1.11444
7.91005,0.946315
7.91746,0.951833
7.92487,0.909338
7.93227,0.953047
7.93968,1.092783
7.94709,0.96713
7.95449,0.931325
7.9619,0.932438
7.9693,1.121867
7.97671,1.011147
7.98412,0.922558
7.99152,1.007483
7.99893,0.992247
8.00634,0.938522
8.01374,0.955465
8.02115,0.957115
8.02856,0.939112
8.03596,0.948433
8.04337,1.000247
8.05078,0.965132
8.05818,0.821705
8.06559,0.978545
8.07299,0.921255
8.0804,0.89394
8.08781,0.861957
8.09521,0.957112
8.10262,0.888748
8.11003,0.926115
8.11743,1.031832
8.12484,0.984425
8.13225,0.911972
8.13965,0.956978
8.14706,0.894647
8.15447,1.035198
8.16187,0.856428
8.16928,0.84007
8.17668,0.968462
8.18409,0.95394
8.1915,0.887613
8.1989,0.819252
8.20631,0.922368
8.21372,0.908437
8.22112,0.879987
8.22853,0.940042
8.23594,0.978327
8.24334,0.751757
8.25075,0.853593
8.25816,0.848437
8.26556,0.893747
8.27297,0.838582
8.28037,0.93852
8.28778,0.877785
8.29519,0.86052
8.30259,0.921955
8.31,0.919717
8.31741,0.738238
8.32481,0.801202
8.33222,0.963198
8.33963,0.867583
8.34703,0.859158
8.35444,0.898608
8.36184,0.781105
8.36925,0.910502
8.37666,0.870158
8.38406,0.783738
8.39147,0.796935
8.39888,0.885983
8.40628,0.739132
8.41369,0.95597
8.4211,0.86033
8.4285,0.838935
8.43591,0.902143
8.44332,0.840075
8.45072,0.83207
8.45813,0.888348
8.46553,0.879092
8.47294,0.817058
8.48035,0.738238
8.48775,0.88074
8.49516,0.87588
8.50257,0.845068
8.50997,0.884085
8.51738,0.733567
8.52479,0.801607
8.53219,0.817758
8.5396,0.757922
8.54701,0.865297
8.55441,0.700687
8.56182,0.762915
8.56922,0.69996
8.57663,0.730035
8.58404,0.584192
8.59144,0.765548
8.59885,0.688067
8.60626,0.871778
8.61366,0.897278
8.62107,0.764953
8.62848,0.824245
8.63588,0.77258
8.64329,0.727978
8.6507,0.811048
8.6581,0.837278
8.66551,0.679137
8.67291,0.60092
8.68032,0.8066
8.68773,0.69306
8.69513,0.766283
8.70254,0.813087
8.70995,0.70775
8.71735,0.701585
8.72476,0.794897
8.73217,0.785777
8.73957,0.796938
8.74698,0.790638
8.75439,0.964212
8.76179,0.787107
8.7692,0.775412
8.7766,0.847107
8.78401,0.836138
8.79142,0.712422
8.79882,0.64642
8.80623,0.74413
8.81364,0.734465
8.82104,0.860493
8.82845,0.910797
8.83586,0.880722
8.84326,0.705117
8.85067,0.770542
