KEV,INTENSITY
0.38493,4.47335
0.39248,4.43215
0.40003,4.38705
0.40757,4.34525
0.41512,4.30425
0.42267,4.26245
0.43022,4.2207
0.43777,4.1786
0.44531,4.13945
0.45286,4.0945
0.46041,4.06375
0.46796,4.0123
0.4755,3.98085
0.48305,3.9392
0.4906,3.8977
0.49815,3.86035
0.50569,3.8285
0.51324,3.797
0.52079,3.7477
0.52834,3.7193
0.53589,3.68675
0.54343,3.6546
0.55098,3.6261
0.55853,3.5914
0.56608,3.55805
0.57362,3.51865
0.58117,3.502
0.58872,3.4597
0.59627,3.4321
0.60381,3.39
0.61136,3.36895
0.61891,3.34635
0.62646,3.32505
0.63401,3.29995
0.64155,3.26065
0.6491,3.2309
0.65665,3.2007
0.6642,3.1794
0.67174,3.1708
0.67929,3.13215
0.68684,3.10785
0.69439,3.0877
0.70193,3.04815
0.70948,3.04935
0.71703,3.00985
0.72458,3.00925
0.73213,2.97795
0.73967,2.9785
0.74722,2.9537
0.75477,2.92615
0.76232,2.90335
0.76986,2.8799
0.77741,2.8824
0.78496,2.8512
0.79251,2.83875
0.80005,2.83465
0.8076,2.8188
0.81515,2.8105
0.8227,2.7798
0.83025,2.78165
0.83779,2.7643
0.84534,2.7306
0.85289,2.72215
0.86044,2.71385
0.86798,2.68165
0.87553,2.67725
0.88308,2.68165
0.89063,2.64155
0.89817,2.6375
0.90572,2.62735
0.91327,2.6016
0.92082,2.58975
0.92837,2.5944
0.93591,2.56795
0.94346,2.56415
0.95101,2.5747
0.95856,2.56005
0.9661,2.553
0.97365,2.5193
0.9812,2.5645
0.98875,2.5397
0.99629,2.52875
1.00384,2.50625
1.01139,2.4926
1.01894,2.50115
1.02649,2.4905
1.03403,2.46055
1.04158,2.48285
1.04913,2.4738
1.05668,2.44295
1.06422,2.43205
1.07177,2.4279
1.07932,2.43105
1.08687,2.4502
1.09441,2.4447
1.10196,2.43125
1.10951,2.38785
1.11706,2.41995
1.1246,2.3926
1.13215,2.3944
1.1397,2.37285
1.14725,2.39055
1.1548,2.3969
1.16234,2.39845
1.16989,2.3699
1.17744,2.3599
1.18499,2.39245
1.19253,2.31455
1.20008,2.4116
1.20763,2.36165
1.21518,2.3846
1.22272,2.34825
1.23027,2.358
1.23782,2.3818
1.24537,2.32465
1.25292,2.3672
1.26046,2.3659
1.26801,2.3508
1.27556,2.32525
1.28311,2.3499
1.29065,2.3064
1.2982,2.3086
1.30575,2.3568
1.3133,2.3249
1.32084,2.3659
1.32839,2.3501
1.33594,2.32985
1.34349,2.3423
1.35104,2.34735
1.35858,2.3538
1.36613,2.35645
1.37368,2.3464
1.38123,2.3442
1.38877,2.34925
1.39632,2.34125
1.40387,2.35695
1.41142,2.36445
1.41896,2.3785
1.42651,2.36985
1.43406,2.3525
1.44161,2.3793
1.44916,2.35885
1.4567,2.36505
1.46425,2.3793
1.4718,2.34335
1.47935,2.3561
1.48689,2.3895
1.49444,2.3392
1.50199,2.384
1.50954,2.3434
1.51708,2.34325
1.52463,2.35295
1.53218,2.353
1.53973,2.29
1.54728,2.3366
1.55482,2.35025
1.56237,2.3296
1.56992,2.26615
1.57747,2.30705
1.58501,2.35885
1.59256,2.29985
1.60011,2.30315
1.60766,2.3009
1.6152,2.33135
1.62275,2.3266
1.6303,2.27
1.63785,2.32065
1.6454,2.30485
1.65294,2.3284
1.66049,2.30875
1.66804,2.2954
1.67559,2.29215
1.68313,2.3488
1.69068,2.28895
1.69823,2.26625
1.70578,2.26665
1.71332,2.24785
1.72087,2.2591
1.72842,2.27915
1.73597,2.2773
1.74351,2.2266
1.75106,2.2678
1.75861,2.18465
1.76616,2.19205
1.77371,2.17305
1.78125,2.24785
1.7888,2.1927
1.79635,2.13795
1.8039,2.1762
1.81144,2.17115
1.81899,2.1679
1.82654,2.12715
1.83409,2.0502
1.84163,2.12565
1.84918,2.102
1.85673,2.07475
1.86428,2.0576
1.87183,1.9893
1.87937,2.04075
1.88692,2.0092
1.89447,2.0209
1.90202,1.96845
1.90956,1.95515
1.91711,2.01695
1.92466,1.95205
1.93221,1.9586
1.93975,1.8973
1.9473,1.9466
1.95485,1.9883
1.9624,1.93425
1.96995,1.8595
1.97749,1.84435
1.98504,1.93665
1.99259,1.95095
2.00014,1.80925
2.00768,1.7752
2.01523,1.7677
2.02278,1.8388
2.03033,1.781
2.03787,1.8449
2.04542,1.7985
2.05297,1.81615
2.06052,1.8068
2.06807,1.8302
2.07561,1.8141
2.08316,1.80925
2.09071,1.8726
2.09826,1.78875
2.1058,1.80735
2.11335,1.73235
2.1209,1.74705
2.12845,1.7321
2.13599,1.79975
2.14354,1.80255
2.15109,1.80535
2.15864,1.75565
2.16619,1.75965
2.17373,1.724
2.18128,1.7403
2.18883,1.76285
2.19638,1.7504
2.20392,1.7068
2.21147,1.79665
2.21902,1.7922
2.22657,1.75685
2.23411,1.76705
2.24166,1.78105
2.24921,1.6559
2.25676,1.71015
2.26431,1.8048
2.27185,1.6986
2.2794,1.75065
2.28695,1.7919
2.2945,1.82485
2.30204,1.7287
2.30959,1.75955
2.31714,1.7276
2.32469,1.75965
2.33223,1.7321
2.33978,1.7157
2.34733,1.7364
2.35488,1.74345
2.36243,1.7355
2.36997,1.73055
2.37752,1.8111
2.38507,1.854
2.39262,1.7205
2.40016,1.76285
2.40771,1.74215
2.41526,1.82005
2.42281,1.7157
2.43035,1.71855
2.4379,1.68695
2.44545,1.61085
2.453,1.65905
2.46054,1.6437
2.46809,1.65485
2.47564,1.6379
2.48319,1.682
2.49074,1.55105
2.49828,1.5938
2.50583,1.56195
2.51338,1.5414
2.52093,1.5389
2.52847,1.6879
2.53602,1.57215
2.54357,1.5191
2.55112,1.6053
2.55866,1.6037
2.56621,1.56755
2.57376,1.5352
2.58131,1.55015
2.58886,1.4945
2.5964,1.40645
2.60395,1.4188
2.6115,1.49295
2.61905,1.4976
2.62659,1.3601
2.63414,1.3538
2.64169,1.4742
2.64924,1.38725
2.65678,1.3473
2.66433,1.3802
2.67188,1.3601
2.67943,1.466
2.68698,1.1818
2.69452,1.4311
2.70207,1.39655
2.70962,1.45425
2.71717,1.30955
2.72471,1.23855
2.73226,1.3295
2.73981,1.3741
2.74736,1.301
2.7549,1.22355
2.76245,1.3613
2.77,1.21245
2.77755,1.363
2.7851,1.3266
2.79264,1.30375
2.80019,1.2689
2.80774,1.3085
2.81529,1.2657
2.82283,1.34945
2.83038,1.43695
2.83793,1.2657
2.84548,1.301
2.85302,1.3116
2.86057,1.24285
2.86812,1.33835
2.87567,1.3106
2.88322,1.2763
2.89076,1.28875
2.89831,1.3085
2.90586,1.35205
2.91341,1.42865
2.92095,1.28055
2.9285,1.31875
2.93605,1.42865
2.9436,1.33135
2.95114,1.41205
2.95869,1.2864
2.96624,1.40445
2.97379,1.3005
2.98134,1.26705
2.98888,1.3741
2.99643,1.3217
3.00398,1.2864
3.01153,1.3217
3.01907,1.3406
3.02662,1.3686
3.03417,1.32025
3.04172,1.2829
3.04926,1.39195
3.05681,1.30375
3.06436,1.2559
3.07191,1.38835
3.07946,1.3551
3.087,1.3085
3.09455,1.29665
3.1021,1.2546
3.10965,1.33515
3.11719,1.37095
3.12474,1.3116
3.13229,1.3662
3.13984,1.2864
3.14738,1.39965
3.15493,1.31775
3.16248,1.3222
3.17003,1.4311
3.17757,1.41465
3.18512,1.33135
3.19267,1.42655
3.20022,1.37015
3.20777,1.3222
3.21531,1.3613
3.22286,1.2829
3.23041,1.3309
3.23796,1.3601
3.2455,1.46975
3.25305,1.4614
3.2606,1.48285
3.26815,1.358
3.27569,1.3116
3.28324,1.26705
3.29079,1.50175
3.29834,1.3617
3.30589,1.4058
3.31343,1.358
3.32098,1.4358
3.32853,1.4532
3.33608,1.3406
3.34362,1.272
3.35117,1.3976
3.35872,1.35205
3.36627,1.3617
3.37381,1.46975
3.38136,1.4213
3.38891,1.29885
3.39646,1.4375
3.40401,1.29555
3.41155,1.5185
3.4191,1.3005
3.42665,1.3388
3.4342,1.4548
3.44174,1.4334
3.44929,1.53665
3.45684,1.5167
3.46439,1.49045
3.47193,1.4771
3.47948,1.32025
3.48703,1.40975
3.49458,1.47075
3.50213,1.35205
3.50967,1.51915
3.51722,1.4614
3.52477,1.62765
3.53232,1.5056
3.53986,1.5892
3.54741,1.47615
3.55496,1.5536
3.56251,1.5798
3.57005,1.55615
3.5776,1.4945
3.58515,1.5043
3.5927,1.5613
3.60025,1.5441
3.60779,1.64625
3.61534,1.60745
3.62289,1.6316
3.63044,1.64335
3.63798,1.7075
3.64553,1.6165
3.65308,1.64815
3.66063,1.6379
3.66817,1.658
3.67572,1.66625
3.68327,1.5731
3.69082,1.6778
3.69837,1.6379
3.70591,1.6142
3.71346,1.5153
3.72101,1.58455
3.72856,1.61165
3.7361,1.6279
3.74365,1.58515
3.7512,1.64165
3.75875,1.5911
3.76629,1.53665
3.77384,1.61265
3.78139,1.5313
3.78894,1.4916
3.79649,1.6567
3.80403,1.61265
3.81158,1.60345
3.81913,1.46825
3.82668,1.633
3.83422,1.4965
3.84177,1.5246
3.84932,1.5563
3.85687,1.4675
3.86441,1.5246
3.87196,1.46825
3.87951,1.5737
3.88706,1.5246
3.8946,1.5441
3.90215,1.47615
3.9097,1.48285
3.91725,1.49045
3.9248,1.41205
3.93234,1.4287
3.93989,1.45425
3.94744,1.3053
3.95499,1.3869
3.96253,1.54985
3.97008,1.3388
3.97763,1.4024
3.98518,1.32025
3.99272,1.47495
4.00027,1.3323
4.00782,1.28875
4.01537,1.3005
4.02292,1.2864
4.03046,1.34945
4.03801,1.35885
4.04556,1.4401
4.05311,1.3551
4.06065,1.3222
4.0682,1.3295
4.07575,1.3741
4.0833,1.4137
4.09084,1.3962
4.09839,1.4058
4.10594,1.3266
4.11349,1.4058
4.12104,1.3005
4.12858,1.3512
4.13613,1.42865
4.14368,1.50175
4.15123,1.39655
4.15877,1.49045
4.16632,1.48285
4.17387,1.4742
4.18142,1.3678
4.18896,1.43045
4.19651,1.4358
4.20406,1.4978
4.21161,1.44325
4.21916,1.5423
4.2267,1.46825
4.23425,1.50325
4.2418,1.5563
4.24935,1.5341
4.25689,1.5298
4.26444,1.52265
4.27199,1.5963
4.27954,1.50855
4.28708,1.6178
4.29463,1.5376
4.30218,1.5863
4.30973,1.67125
4.31728,1.62015
4.32482,1.67125
4.33237,1.7401
4.33992,1.6561
4.34747,1.6852
4.35501,1.64615
4.36256,1.6765
4.37011,1.7559
4.37766,1.7479
4.3852,1.7282
4.39275,1.7848
4.4003,1.76135
4.40785,1.78815
4.4154,1.8057
4.42294,1.69635
4.43049,1.7413
4.43804,1.81475
4.44559,1.79485
4.45313,1.80215
4.46068,1.85015
4.46823,1.8539
4.47578,1.8573
4.48332,1.8497
4.49087,1.75685
4.49842,1.9111
4.50597,1.8213
4.51351,1.83685
4.52106,1.77995
4.52861,1.8387
4.53616,1.86185
4.54371,1.79885
4.55125,1.8351
4.5588,1.8538
4.56635,1.81935
4.5739,1.8506
4.58144,1.8287
4.58899,1.79555
4.59654,1.81835
4.60409,1.7853
4.61163,1.80215
4.61918,1.8094
4.62673,1.73805
4.63428,1.64815
4.64183,1.7425
4.64937,1.75
4.65692,1.7108
4.66447,1.6818
4.67202,1.6804
4.67956,1.70225
4.68711,1.75835
4.69466,1.7055
4.70221,1.67125
4.70975,1.62815
4.7173,1.643
4.72485,1.6123
4.7324,1.62375
4.73995,1.6628
4.74749,1.67515
4.75504,1.64165
4.76259,1.633
4.77014,1.6123
4.77768,1.68695
4.78523,1.7007
4.79278,1.6165
4.80033,1.63195
4.80787,1.75565
4.81542,1.6894
4.82297,1.65985
4.83052,1.7033
4.83807,1.67665
4.84561,1.6902
4.85316,1.6107
4.86071,1.70725
4.86826,1.6789
4.8758,1.74345
4.88335,1.74385
4.8909,1.6371
4.89845,1.6968
4.90599,1.6766
4.91354,1.73925
4.92109,1.8011
4.92864,1.75595
4.93619,1.73105
4.94373,1.75965
4.95128,1.76985
4.95883,1.73595
4.96638,1.8719
4.97392,1.8156
4.98147,1.82495
4.98902,1.7752
4.99657,1.82185
5.00411,1.8836
5.01166,1.8717
5.01921,1.82585
5.02676,1.84635
5.03431,1.8271
5.04185,1.8302
5.0494,1.84765
5.05695,1.8772
5.0645,1.92315
5.07204,1.8808
5.07959,1.9976
5.08714,1.9454
5.09469,1.91265
5.10223,1.97825
5.10978,1.98285
5.11733,2.05095
5.12488,2.04415
5.13243,2.0394
5.13997,2.10035
5.14752,2.08865
5.15507,2.0969
5.16262,2.15545
5.17016,2.11465
5.17771,2.17585
5.18526,2.18395
5.19281,2.2105
5.20035,2.27285
5.2079,2.2479
5.21545,2.2611
5.223,2.25185
5.23054,2.339
5.23809,2.31495
5.24564,2.3493
5.25319,2.3691
5.26074,2.38905
5.26828,2.3988
5.27583,2.472
5.28338,2.46
5.29093,2.44635
5.29847,2.4482
5.30602,2.4691
5.31357,2.49055
5.32112,2.49895
5.32866,2.5378
5.33621,2.5371
5.34376,2.5489
5.35131,2.5587
5.35886,2.55735
5.3664,2.58995
5.37395,2.57605
5.3815,2.57285
5.38905,2.5993
5.39659,2.5924
5.40414,2.55975
5.41169,2.58645
5.41924,2.60905
5.42678,2.57045
5.43433,2.5675
5.44188,2.59435
5.44943,2.5687
5.45698,2.55
5.46452,2.5558
5.47207,2.55325
5.47962,2.5406
5.48717,2.53895
5.49471,2.45705
5.50226,2.463
5.50981,2.48335
5.51736,2.47645
5.5249,2.42695
5.53245,2.4026
5.54,2.39735
5.54755,2.3641
5.5551,2.39375
5.56264,2.40505
5.57019,2.2978
5.57774,2.29305
5.58529,2.27185
5.59283,2.25515
5.60038,2.2528
5.60793,2.20725
5.61548,2.20095
5.62302,2.2027
5.63057,2.14135
5.63812,2.12635
5.64567,2.1122
5.65322,2.1004
5.66076,2.13665
5.66831,2.10475
5.67586,2.07845
5.68341,1.98455
5.69095,2.0457
5.6985,2.0293
5.70605,1.9887
5.7136,1.93665
5.72114,1.9515
5.72869,1.9978
5.73624,1.98405
5.74379,1.875
5.75134,1.9466
5.75888,1.9268
5.76643,1.9258
5.77398,1.90865
5.78153,1.9188
5.78907,1.9901
5.79662,1.88365
5.80417,1.9466
5.81172,1.95295
5.81926,1.9933
5.82681,1.93675
5.83436,1.9569
5.84191,1.9268
5.84946,1.92725
5.857,1.9466
5.86455,2.00495
5.8721,1.8852
5.87965,2.02625
5.88719,2.02815
5.89474,2.01275
5.90229,1.9797
5.90984,1.94925
5.91738,2.02215
5.92493,1.9488
5.93248,2.01265
5.94003,2.01275
5.94757,1.9542
5.95512,2.03035
5.96267,1.9586
5.97022,1.9777
5.97777,1.95125
5.98531,1.94345
5.99286,1.98405
6.00041,1.92555
6.00796,1.99085
6.0155,1.95795
6.02305,1.9326
6.0306,1.96565
6.03815,1.94535
6.04569,1.969
6.05324,1.92315
6.06079,1.94935
6.06834,1.9056
6.07589,1.93315
6.08343,1.90305
6.09098,1.9438
6.09853,1.95245
6.10608,1.9183
6.11362,1.9054
6.12117,1.9105
6.12872,1.9216
6.13627,1.9056
6.14381,1.94165
6.15136,1.9028
6.15891,1.9057
6.16646,1.9105
6.17401,1.94935
6.18155,1.87365
6.1891,1.8449
6.19665,1.8473
6.2042,1.9395
6.21174,1.9345
6.21929,1.9675
6.22684,1.9588
6.23439,1.8979
6.24193,1.96755
6.24948,2.0128
6.25703,1.98675
6.26458,2.0294
6.27213,2.0148
6.27967,2.0251
6.28722,2.0253
6.29477,2.05665
6.30232,2.0248
6.30986,2.10495
6.31741,2.09415
6.32496,2.0611
6.33251,2.0862
6.34005,2.12955
6.3476,2.0946
6.35515,2.0969
6.3627,2.09415
6.37025,2.18925
6.37779,2.1139
6.38534,2.10835
6.39289,2.1532
6.40044,2.14745
6.40798,2.1605
6.41553,2.13195
6.42308,2.1644
6.43063,2.1397
6.43817,2.1804
6.44572,2.1673
6.45327,2.1305
6.46082,2.1611
6.46837,2.14425
6.47591,2.1345
6.48346,2.15665
6.49101,2.16235
6.49856,2.20855
6.5061,2.1551
6.51365,2.1613
6.5212,2.14765
6.52875,2.1108
6.53629,2.20035
6.54384,2.1903
6.55139,2.20545
6.55894,2.17125
6.56649,2.18325
6.57403,2.2124
6.58158,2.2095
6.58913,2.1635
6.59668,2.23525
6.60422,2.23705
6.61177,2.2385
6.61932,2.2639
6.62687,2.23915
6.63441,2.2833
6.64196,2.3253
6.64951,2.2776
6.65706,2.32005
6.6646,2.3492
6.67215,2.3847
6.6797,2.3805
6.68725,2.39565
6.6948,2.42245
6.70234,2.4337
6.70989,2.4827
6.71744,2.46695
6.72499,2.4864
6.73253,2.5072
6.74008,2.55565
6.74763,2.56745
6.75518,2.60075
6.76272,2.59805
6.77027,2.62565
6.77782,2.64435
6.78537,2.65745
6.79292,2.6703
6.80046,2.67825
6.80801,2.6909
6.81556,2.72555
6.82311,2.7164
6.83065,2.7433
6.8382,2.76885
6.84575,2.7396
6.8533,2.7485
6.86084,2.77665
6.86839,2.78845
6.87594,2.77925
6.88349,2.79245
6.89104,2.7867
6.89858,2.79755
6.90613,2.78785
6.91368,2.79515
6.92123,2.8108
6.92877,2.79135
6.93632,2.8102
6.94387,2.79485
6.95142,2.7969
6.95896,2.7748
6.96651,2.7982
6.97406,2.78985
6.98161,2.7738
6.98916,2.7597
6.9967,2.7694
7.00425,2.7659
7.0118,2.73215
7.01935,2.73835
7.02689,2.7077
7.03444,2.7014
7.04199,2.69415
7.04954,2.65175
7.05708,2.62785
7.06463,2.64685
7.07218,2.58865
7.07973,2.6137
7.08728,2.58805
7.09482,2.54615
7.10237,2.4983
7.10992,2.4927
7.11747,2.4692
7.12501,2.4293
7.13256,2.4273
7.14011,2.4396
7.14766,2.3691
7.1552,2.32685
7.16275,2.3223
7.1703,2.33575
7.17785,2.29055
7.1854,2.26515
7.19294,2.2214
7.20049,2.2298
7.20804,2.19885
7.21559,2.1246
7.22313,2.14565
7.23068,2.0536
7.23823,2.11565
7.24578,2.10745
7.25332,2.07365
7.26087,2.0646
7.26842,2.08095
7.27597,2.02115
7.28351,1.96805
7.29106,1.96605
7.29861,1.9444
7.30616,1.94605
7.31371,1.9138
7.32125,1.9175
7.3288,1.92915
7.33635,1.9294
7.3439,1.90295
7.35144,1.8719
7.35899,1.8878
7.36654,1.9518
7.37409,1.9054
7.38163,1.9141
7.38918,1.93095
7.39673,1.9389
7.40428,1.9073
7.41183,1.94345
7.41937,1.9581
7.42692,1.9525
7.43447,2.00315
7.44202,1.98405
7.44956,2.0101
7.45711,1.942
7.46466,1.96855
7.47221,1.99975
7.47975,1.98435
7.4873,2.0581
7.49485,1.9754
7.5024,1.98395
7.50995,2.0103
7.51749,2.06585
7.52504,2.0393
7.53259,1.99455
7.54014,2.07555
7.54768,2.06245
7.55523,2.08875
7.56278,2.07295
7.57033,2.03135
7.57787,2.0901
7.58542,2.0969
7.59297,2.04915
7.60052,1.9998
7.60807,2.072
7.61561,2.053
7.62316,2.01885
7.63071,2.0715
7.63826,2.09065
7.6458,2.01965
7.65335,2.1077
7.6609,2.0486
7.66845,2.07665
7.67599,2.0447
7.68354,2.0979
7.69109,2.092
7.69864,2.07325
7.70619,1.98445
7.71373,1.9625
7.72128,2.07
7.72883,1.9811
7.73638,1.98855
7.74392,1.937
7.75147,2.00825
7.75902,1.9538
7.76657,1.9533
7.77411,1.9395
7.78166,1.8401
7.78921,1.8689
7.79676,1.73785
7.80431,1.8313
7.81185,1.8573
7.8194,1.8686
7.82695,1.8057
7.8345,1.77515
7.84204,1.75955
7.84959,1.73235
7.85714,1.75835
7.86469,1.68295
7.87223,1.6765
7.87978,1.6765
7.88733,1.7075
7.89488,1.6173
7.90243,1.5938
7.90997,1.6173
7.91752,1.62815
7.92507,1.6123
7.93262,1.5167
7.94016,1.51145
7.94771,1.55615
7.95526,1.3847
7.96281,1.42035
7.97035,1.53665
7.9779,1.4311
7.98545,1.48
7.993,1.46825
8.00054,1.4529
8.00809,1.30955
8.01564,1.34945
8.02319,1.32025
8.03074,1.48285
8.03828,1.41465
8.04583,1.36775
8.05338,1.24145
8.06093,1.38835
8.06847,1.3551
8.07602,1.3706
8.08357,1.3512
8.09112,1.26705
8.09866,1.24915
8.10621,1.31415
8.11376,1.27265
8.12131,1.3798
8.12886,1.11265
8.1364,1.167245
8.14395,1.2689
8.1515,1.23855
8.15905,1.3406
8.16659,1.3686
8.17414,1.37095
8.18169,1.34945
8.18924,1.2763
8.19678,1.09655
8.20433,1.10477
8.21188,1.090945
8.21943,1.26705
8.22698,1.2157
8.23452,1.24285
8.24207,1.2297
8.24962,1.0792
8.25717,1.21725
8.26471,1.18825
8.27226,1.22355
8.27981,1.11265
8.28736,1.3005
8.2949,1.2157
8.30245,1.20325
8.31,1.179
8.31755,1.07305
8.3251,1.1712
8.33264,1.1611
8.34019,1.1846
8.34774,1.1712
8.35529,1.05695
8.36283,1.17215
8.37038,1.145
8.37793,1.03407
8.38548,1.2297
8.39302,0.972245
8.40057,1.12765
8.40812,1.1846
8.41567,1.2297
8.42322,1.1359
8.43076,1.05695
8.43831,1.22355
8.44586,1.1139
8.45341,1.10875
8.46095,0.951535
8.4685,1.1139
8.47605,0.85376
8.4836,1.27815
8.49114,0.946025
8.49869,1.1901
8.50624,1.1901
8.51379,1.112645
8.52134,1.2304
8.52888,1.1548
8.53643,1.1751
8.54398,1.1359
8.55153,0.951545
8.55907,1.07765
8.56662,1.0207
8.57417,1.053595
8.58172,1.004275
8.58926,0.972245
8.59681,1.1461
8.60436,0.874095
8.61191,0.90309
8.61946,1.0106
8.627,0.991145
8.63455,0.972245
8.6421,0.99782
8.64965,0.85798
8.65719,1
8.66474,1.05695
8.67229,1.01672
8.67984,1
8.68738,1.05017
8.69493,0.811615
8.70248,0.991145
8.71003,1.01672
8.71757,1.039595
8.72512,0.92255
8.73267,0.9956
8.74022,0.928665
8.74777,0.86621
8.75531,0.84062
8.76286,1.0792
8.77041,0.972245
8.77796,1.053595
8.7855,1.0792
8.79305,1.09655
8.8006,0.588045
8.80815,1
8.81569,1.05017
8.82324,1
8.83079,0.991125
8.83834,1.03407
8.84589,0.94325
8.85343,1.09655
8.86098,0.874095
8.86853,0.964685
8.87608,1.08805
8.88362,0.937535
8.89117,1.09232
8.89872,0.991125
8.90627,1.1611
8.91381,1.053595
8.92136,0.866195
8.92891,0.772035
8.93646,1.07305
8.94401,0.94325
8.95155,1.05695
8.9591,0.92255
8.96665,1
8.9742,1.13
8.98174,1
8.98929,0.909775
8.99684,0.889085
9.00439,1.09375
9.01193,0.95424
9.01948,0.80103
9.02703,0.928665
9.03458,0.991145
9.04213,0.811625
9.04967,1.09375
9.05722,1.10875
9.06477,1.024595
9.07232,1.10875
9.07986,0.874095
9.08741,0.972245
9.09496,0.92255
9.10251,0.849485
9.11005,1.0396
9.1176,0.69897
9.12515,0.752575
9.1327,0.889075
9.14025,1.0207
9.14779,1.0603
9.15534,0.889075
9.16289,0.928665
9.17044,0.811625
9.17798,0.89967
9.18553,0.97712
9.19308,1.08805
9.20063,0.90309
9.20817,0.951545
9.21572,1.008495
9.22327,1.066745
9.23082,0.870185
9.23837,0.92255
9.24591,0.84063
9.25346,0.9795
9.26101,1
9.26856,1.01672
9.2761,0.99782
9.28365,0.99782
9.2912,1.0106
9.29875,0.9956
9.30629,0.80103
9.31384,0.928665
9.32139,1.07917
9.32894,0.89967
9.33649,0.951545
9.34403,0.77815
9.35158,1.07765
9.35913,0.922535
9.36668,0.99782
9.37422,1.13
9.38177,0.928665
9.38932,1.08805
9.39687,1.1359
9.40441,0.84062
9.41196,1.1139
9.41951,0.928665
9.42706,1.0246
9.4346,0.89967
9.44215,0.77815
9.4497,0.80103
9.45725,1.07305
9.4648,0.89967
9.47234,0.951545
9.47989,0.97712
9.48744,1.01672
9.49499,0.9795
9.50253,0.92255
9.51008,0.874095
9.51763,0.95424
9.52518,0.81161
9.53272,0.849485
9.54027,0.909775
9.54782,0.89967
9.55537,1.0246
9.56292,0.55695
9.57046,1.10205
9.57801,0.772035
9.58556,0.889075
