KEV,INTENSITY
0.39516,4.79849
0.40291,4.76439
0.41065,4.73187
0.4184,4.69703
0.42615,4.66483
0.4339,4.62939
0.44165,4.59725
0.44939,4.56253
0.45714,4.52908
0.46489,4.496
0.47264,4.46331
0.48039,4.42813
0.48814,4.39861
0.49588,4.36376
0.50363,4.33247
0.51138,4.30007
0.51913,4.26719
0.52688,4.23465
0.53462,4.20345
0.54237,4.17057
0.55012,4.14181
0.55787,4.10741
0.56562,4.07907
0.57337,4.0483
0.58111,4.01655
0.58886,3.98658
0.59661,3.96001
0.60436,3.92622
0.61211,3.89937
0.61985,3.86907
0.6276,3.84279
0.63535,3.81132
0.6431,3.78302
0.65085,3.75368
0.6586,3.7273
0.66634,3.69701
0.67409,3.66938
0.68184,3.63919
0.68959,3.61742
0.69734,3.59522
0.70508,3.57262
0.71283,3.54996
0.72058,3.5312
0.72833,3.50509
0.73608,3.48599
0.74383,3.46419
0.75157,3.44104
0.75932,3.41493
0.76707,3.40513
0.77482,3.38294
0.78257,3.36578
0.79031,3.3537
0.79806,3.34609
0.80581,3.3229
0.81356,3.31526
0.82131,3.29864
0.82906,3.27923
0.8368,3.26471
0.84455,3.24966
0.8523,3.23232
0.86005,3.21925
0.8678,3.20394
0.87554,3.19218
0.88329,3.17899
0.89104,3.1698
0.89879,3.15355
0.90654,3.14687
0.91429,3.13051
0.92203,3.12123
0.92978,3.10812
0.93753,3.10106
0.94528,3.08621
0.95303,3.08039
0.96077,3.06607
0.96852,3.05786
0.97627,3.04532
0.98402,3.03589
0.99177,3.0227
0.99952,3.01883
1.00726,3.00607
1.01501,2.98979
1.02276,2.9848
1.03051,2.97373
1.03826,2.958
1.046,2.95168
1.05375,2.93935
1.0615,2.93106
1.06925,2.92012
1.077,2.90656
1.08475,2.89901
1.09249,2.89315
1.10024,2.88554
1.10799,2.87174
1.11574,2.85865
1.12349,2.85221
1.13123,2.83726
1.13898,2.83706
1.14673,2.82537
1.15448,2.81605
1.16223,2.80445
1.16998,2.79175
1.17772,2.78606
1.18547,2.78227
1.19322,2.77057
1.20097,2.76041
1.20872,2.74969
1.21646,2.74527
1.22421,2.73466
1.23196,2.73342
1.23971,2.72506
1.24746,2.71078
1.25521,2.70157
1.26295,2.69719
1.2707,2.68686
1.27845,2.68215
1.2862,2.67036
1.29395,2.66815
1.30169,2.65736
1.30944,2.65459
1.31719,2.64426
1.32494,2.6303
1.33269,2.63028
1.34044,2.62199
1.34818,2.61551
1.35593,2.61232
1.36368,2.60369
1.37143,2.60078
1.37918,2.58263
1.38692,2.58245
1.39467,2.57306
1.40242,2.57224
1.41017,2.56525
1.41792,2.55399
1.42567,2.55624
1.43341,2.53736
1.44116,2.53394
1.44891,2.53337
1.45666,2.52703
1.46441,2.5207
1.47215,2.50516
1.4799,2.50732
1.48765,2.49604
1.4954,2.49581
1.50315,2.48104
1.5109,2.47633
1.51864,2.47378
1.52639,2.47949
1.53414,2.47158
1.54189,2.46729
1.54964,2.47206
1.55738,2.46164
1.56513,2.44832
1.57288,2.44125
1.58063,2.43833
1.58838,2.43261
1.59613,2.42873
1.60387,2.41764
1.61162,2.41047
1.61937,2.40886
1.62712,2.39343
1.63487,2.36774
1.64262,2.37605
1.65036,2.37538
1.65811,2.36983
1.66586,2.36891
1.67361,2.36366
1.68136,2.36453
1.6891,2.36654
1.69685,2.35518
1.7046,2.35304
1.71235,2.34117
1.7201,2.34611
1.72785,2.34242
1.73559,2.33528
1.74334,2.33728
1.75109,2.3527
1.75884,2.33783
1.76659,2.33023
1.77433,2.33406
1.78208,2.33265
1.78983,2.32515
1.79758,2.32711
1.80533,2.32218
1.81308,2.30914
1.82082,2.30573
1.82857,2.30057
1.83632,2.29094
1.84407,2.28309
1.85182,2.27116
1.85956,2.28439
1.86731,2.26993
1.87506,2.26529
1.88281,2.25983
1.89056,2.2504
1.89831,2.24753
1.90605,2.23574
1.9138,2.23992
1.92155,2.22396
1.9293,2.21983
1.93705,2.21466
1.94479,2.19891
1.95254,2.19737
1.96029,2.18929
1.96804,2.18501
1.97579,2.16694
1.98354,2.15879
1.99128,2.15694
1.99903,2.15292
2.00678,2.14178
2.01453,2.13191
2.02228,2.11739
2.03002,2.11474
2.03777,2.11846
2.04552,2.1105
2.05327,2.10122
2.06102,2.09392
2.06877,2.08761
2.07651,2.08221
2.08426,2.0741
2.09201,2.06549
2.09976,2.04427
2.10751,2.05744
2.11525,2.04281
2.123,2.03201
2.13075,2.01934
2.1385,2.01873
2.14625,2.02362
2.154,2.00004
2.16174,2.00137
2.16949,1.9871
2.17724,1.99266
2.18499,1.97939
2.19274,1.979
2.20048,1.96379
2.20823,1.95272
2.21598,1.95512
2.22373,1.95293
2.23148,1.92981
2.23923,1.93761
2.24697,1.94125
2.25472,1.92563
2.26247,1.9111
2.27022,1.91833
2.27797,1.9098
2.28571,1.90739
2.29346,1.89655
2.30121,1.90468
2.30896,1.89192
2.31671,1.8638
2.32446,1.87245
2.3322,1.87011
2.33995,1.85844
2.3477,1.86288
2.35545,1.85009
2.3632,1.84762
2.37094,1.84392
2.37869,1.83576
2.38644,1.82411
2.39419,1.84432
2.40194,1.80969
2.40969,1.80692
2.41743,1.81429
2.42518,1.81857
2.43293,1.81096
2.44068,1.79847
2.44843,1.81138
2.45617,1.8086
2.46392,1.80023
2.47167,1.79482
2.47942,1.80462
2.48717,1.78838
2.49492,1.79676
2.50266,1.78554
2.51041,1.7967
2.51816,1.77502
2.52591,1.77653
2.53366,1.76581
2.5414,1.78377
2.54915,1.78067
2.5569,1.76429
2.56465,1.76795
2.5724,1.75639
2.58015,1.77984
2.58789,1.75994
2.59564,1.76689
2.60339,1.75081
2.61114,1.75053
2.61889,1.74541
2.62663,1.75525
2.63438,1.75602
2.64213,1.7286
2.64988,1.73551
2.65763,1.70637
2.66538,1.71727
2.67312,1.73732
2.68087,1.72201
2.68862,1.72938
2.69637,1.7158
2.70412,1.70374
2.71186,1.70709
2.71961,1.71132
2.72736,1.69684
2.73511,1.72316
2.74286,1.7037
2.75061,1.71706
2.75835,1.70945
2.7661,1.70152
2.77385,1.71376
2.7816,1.72796
2.78935,1.71423
2.79709,1.69993
2.80484,1.70312
2.81259,1.7205
2.82034,1.72474
2.82809,1.7124
2.83584,1.70612
2.84358,1.72286
2.85133,1.71878
2.85908,1.7071
2.86683,1.72303
2.87458,1.71983
2.88232,1.71802
2.89007,1.73236
2.89782,1.70258
2.90557,1.70912
2.91332,1.72578
2.92107,1.70785
2.92881,1.72077
2.93656,1.73571
2.94431,1.74605
2.95206,1.76174
2.95981,1.75188
2.96755,1.75871
2.9753,1.75829
2.98305,1.7572
2.9908,1.7765
2.99855,1.76757
3.0063,1.77456
3.01404,1.80027
3.02179,1.80007
3.02954,1.81695
3.03729,1.84175
3.04504,1.82787
3.05278,1.84818
3.06053,1.84186
3.06828,1.86474
3.07603,1.89388
3.08378,1.88693
3.09153,1.89142
3.09927,1.91592
3.10702,1.91121
3.11477,1.93244
3.12252,1.93274
3.13027,1.95756
3.13801,1.9554
3.14576,1.96454
3.15351,1.99688
3.16126,1.98776
3.16901,2.01196
3.17676,2.00539
3.1845,2.01833
3.19225,2.03219
3.2,2.03559
3.20775,2.05484
3.2155,2.05553
3.22324,2.06964
3.23099,2.06965
3.23874,2.0892
3.24649,2.09034
3.25424,2.10566
3.26199,2.12514
3.26973,2.12049
3.27748,2.14435
3.28523,2.14332
3.29298,2.16232
3.30073,2.16226
3.30847,2.17679
3.31622,2.1911
3.32397,2.20838
3.33172,2.21026
3.33947,2.22904
3.34722,2.24934
3.35496,2.25886
3.36271,2.27269
3.37046,2.2762
3.37821,2.30482
3.38596,2.31752
3.3937,2.32719
3.40145,2.34261
3.4092,2.36186
3.41695,2.36752
3.4247,2.38971
3.43245,2.40639
3.44019,2.42216
3.44794,2.43656
3.45569,2.44961
3.46344,2.46287
3.47119,2.47212
3.47893,2.49642
3.48668,2.5099
3.49443,2.52388
3.50218,2.54187
3.50993,2.5532
3.51768,2.56609
3.52542,2.58173
3.53317,2.59141
3.54092,2.59487
3.54867,2.60197
3.55642,2.60433
3.56416,2.61732
3.57191,2.62349
3.57966,2.62399
3.58741,2.62749
3.59516,2.63279
3.60291,2.64144
3.61065,2.64721
3.6184,2.65122
3.62615,2.65511
3.6339,2.65906
3.64165,2.66371
3.64939,2.66624
3.65714,2.65647
3.66489,2.65808
3.67264,2.65941
3.68039,2.67067
3.68814,2.66473
3.69588,2.68257
3.70363,2.68567
3.71138,2.68166
3.71913,2.67959
3.72688,2.66697
3.73462,2.6674
3.74237,2.66159
3.75012,2.6547
3.75787,2.65106
3.76562,2.64736
3.77337,2.63987
3.78111,2.62932
3.78886,2.62907
3.79661,2.62056
3.80436,2.61296
3.81211,2.59682
3.81985,2.58775
3.8276,2.5773
3.83535,2.56558
3.8431,2.55721
3.85085,2.55548
3.8586,2.53021
3.86634,2.52324
3.87409,2.52184
3.88184,2.49979
3.88959,2.48967
3.89734,2.48207
3.90508,2.4641
3.91283,2.45113
3.92058,2.43944
3.92833,2.43858
3.93608,2.41544
3.94383,2.4128
3.95157,2.39363
3.95932,2.39087
3.96707,2.36595
3.97482,2.35449
3.98257,2.34768
3.99031,2.3262
3.99806,2.31942
4.00581,2.30872
4.01356,2.30117
4.02131,2.27788
4.02906,2.28307
4.0368,2.25802
4.04455,2.25164
4.0523,2.23751
4.06005,2.2286
4.0678,2.21511
4.07554,2.20397
4.08329,2.18116
4.09104,2.18812
4.09879,2.16383
4.10654,2.15973
4.11429,2.16456
4.12203,2.13867
4.12978,2.13422
4.13753,2.13055
4.14528,2.12347
4.15303,2.1165
4.16077,2.10861
4.16852,2.11144
4.17627,2.09892
4.18402,2.09651
4.19177,2.08484
4.19952,2.07273
4.20726,2.08571
4.21501,2.0833
4.22276,2.08466
4.23051,2.09422
4.23826,2.07493
4.246,2.08207
4.25375,2.08789
4.2615,2.0867
4.26925,2.09079
4.277,2.09462
4.28475,2.10235
4.29249,2.11373
4.30024,2.11119
4.30799,2.11188
4.31574,2.11976
4.32349,2.1301
4.33123,2.12994
4.33898,2.13581
4.34673,2.14402
4.35448,2.15417
4.36223,2.15287
4.36998,2.16339
4.37772,2.15519
4.38547,2.17229
4.39322,2.18278
4.40097,2.18462
4.40872,2.19437
4.41646,2.19756
4.42421,2.19324
4.43196,2.19823
4.43971,2.20069
4.44746,2.19623
4.45521,2.2098
4.46295,2.20727
4.4707,2.2152
4.47845,2.21643
4.4862,2.20839
4.49395,2.2133
4.50169,2.22375
4.50944,2.21596
4.51719,2.21518
4.52494,2.19791
4.53269,2.20425
4.54044,2.1918
4.54818,2.19688
4.55593,2.18776
4.56368,2.18572
4.57143,2.16953
4.57918,2.16406
4.58692,2.16331
4.59467,2.14907
4.60242,2.14829
4.61017,2.14467
4.61792,2.13285
4.62567,2.13325
4.63341,2.11422
4.64116,2.11517
4.64891,2.11015
4.65666,2.10427
4.66441,2.09717
4.67215,2.08311
4.6799,2.09631
4.68765,2.09651
4.6954,2.08361
4.70315,2.07893
4.7109,2.06259
4.71864,2.05308
4.72639,2.03881
4.73414,2.03571
4.74189,2.03053
4.74964,2.03216
4.75738,2.01014
4.76513,2.00459
4.77288,1.98533
4.78063,1.98334
4.78838,1.98202
4.79613,1.9809
4.80387,1.96333
4.81162,1.95611
4.81937,1.9668
4.82712,1.95067
4.83487,1.93044
4.84262,1.94331
4.85036,1.92494
4.85811,1.93055
4.86586,1.90936
4.87361,1.91
4.88136,1.90116
4.8891,1.8969
4.89685,1.89428
4.9046,1.89481
4.91235,1.88767
4.9201,1.88809
4.92785,1.89491
4.93559,1.87574
4.94334,1.88664
4.95109,1.87965
4.95884,1.87419
4.96659,1.87755
4.97433,1.87017
4.98208,1.88117
4.98983,1.85794
4.99758,1.86568
5.00533,1.87163
5.01308,1.87178
5.02082,1.86581
5.02857,1.86756
5.03632,1.86202
5.04407,1.86919
5.05182,1.87127
5.05956,1.87599
5.06731,1.88373
5.07506,1.88189
5.08281,1.88856
5.09056,1.89633
5.09831,1.90061
5.10605,1.88828
5.1138,1.91333
5.12155,1.91136
5.1293,1.92023
5.13705,1.92309
5.14479,1.93183
5.15254,1.9226
5.16029,1.95484
5.16804,1.95167
5.17579,1.97594
5.18354,1.9646
5.19128,1.96274
5.19903,1.99244
5.20678,1.97814
5.21453,1.97763
5.22228,1.99433
5.23002,2.00378
5.23777,2.00622
5.24552,2.01055
5.25327,2.02555
5.26102,2.03869
5.26877,2.04635
5.27651,2.04898
5.28426,2.04685
5.29201,2.05692
5.29976,2.07021
5.30751,2.07002
5.31525,2.09178
5.323,2.0848
5.33075,2.0863
5.3385,2.10205
5.34625,2.1046
5.354,2.10292
5.36174,2.10698
5.36949,2.11262
5.37724,2.11674
5.38499,2.12599
5.39274,2.12385
5.40048,2.1421
5.40823,2.13476
5.41598,2.13296
5.42373,2.14665
5.43148,2.14119
5.43923,2.15167
5.44697,2.15842
5.45472,2.15518
5.46247,2.16338
5.47022,2.1678
5.47797,2.16403
5.48571,2.17434
5.49346,2.18212
5.50121,2.17799
5.50896,2.17817
5.51671,2.18821
5.52446,2.19587
5.5322,2.20469
5.53995,2.19263
5.5477,2.2014
5.55545,2.21039
5.5632,2.20487
5.57094,2.21151
5.57869,2.21573
5.58644,2.22975
5.59419,2.22298
5.60194,2.24091
5.60969,2.23823
5.61743,2.2515
5.62518,2.24511
5.63293,2.25171
5.64068,2.25456
5.64843,2.26623
5.65617,2.27617
5.66392,2.27406
5.67167,2.29313
5.67942,2.30342
5.68717,2.30718
5.69492,2.3191
5.70266,2.33637
5.71041,2.32814
5.71816,2.33665
5.72591,2.34928
5.73366,2.35179
5.7414,2.36972
5.74915,2.37938
5.7569,2.3979
5.76465,2.40769
5.7724,2.41985
5.78015,2.4234
5.78789,2.42948
5.79564,2.44465
5.80339,2.45397
5.81114,2.46032
5.81889,2.47305
5.82663,2.47867
5.83438,2.49198
5.84213,2.49148
5.84988,2.50692
5.85763,2.50786
5.86538,2.52517
5.87312,2.52498
5.88087,2.53297
5.88862,2.54615
5.89637,2.54845
5.90412,2.55901
5.91186,2.56729
5.91961,2.57251
5.92736,2.58493
5.93511,2.58966
5.94286,2.59727
5.95061,2.60888
5.95835,2.61958
5.9661,2.62381
5.97385,2.63756
5.9816,2.64285
5.98935,2.6539
5.99709,2.66719
6.00484,2.67593
6.01259,2.68214
6.02034,2.6986
6.02809,2.69749
6.03584,2.7231
6.04358,2.72703
6.05133,2.74101
6.05908,2.74498
6.06683,2.76456
6.07458,2.76919
6.08232,2.78899
6.09007,2.79966
6.09782,2.80965
6.10557,2.82543
6.11332,2.83811
6.12107,2.85132
6.12881,2.86998
6.13656,2.87541
6.14431,2.89044
6.15206,2.90367
6.15981,2.91732
6.16755,2.93221
6.1753,2.94109
6.18305,2.9556
6.1908,2.96381
6.19855,2.97847
6.2063,2.98714
6.21404,3.00079
6.22179,3.01095
6.22954,3.01811
6.23729,3.03119
6.24504,3.04317
6.25278,3.0527
6.26053,3.05721
6.26828,3.07074
6.27603,3.07301
6.28378,3.08225
6.29153,3.0879
6.29927,3.09683
6.30702,3.09844
6.31477,3.10947
6.32252,3.11441
6.33027,3.12201
6.33801,3.12432
6.34576,3.12706
6.35351,3.12797
6.36126,3.13835
6.36901,3.13241
6.37676,3.13732
6.3845,3.13494
6.39225,3.13991
6.4,3.13997
6.40775,3.13694
6.4155,3.13971
6.42324,3.13897
6.43099,3.13364
6.43874,3.13534
6.44649,3.12676
6.45424,3.12677
6.46199,3.1276
6.46973,3.12069
6.47748,3.11468
6.48523,3.11325
6.49298,3.10259
6.50073,3.098
6.50847,3.08868
6.51622,3.08686
6.52397,3.07865
6.53172,3.06587
6.53947,3.05797
6.54722,3.04603
6.55496,3.03664
6.56271,3.02359
6.57046,3.01022
6.57821,2.99801
6.58596,2.98893
6.5937,2.98582
6.60145,2.97235
6.6092,2.96821
6.61695,2.96225
6.6247,2.95638
6.63245,2.94159
6.64019,2.93762
6.64794,2.9168
6.65569,2.91592
6.66344,2.9116
6.67119,2.91124
6.67893,2.89974
6.68668,2.9065
6.69443,2.90461
6.70218,2.89917
6.70993,2.89195
6.71768,2.88666
6.72542,2.88113
6.73317,2.87271
6.74092,2.87501
6.74867,2.86977
6.75642,2.86312
6.76416,2.86219
6.77191,2.86021
6.77966,2.85802
6.78741,2.84959
6.79516,2.85112
6.80291,2.84539
6.81065,2.84783
6.8184,2.84335
6.82615,2.8436
6.8339,2.83996
6.84165,2.84627
6.84939,2.84786
6.85714,2.8422
6.86489,2.84187
6.87264,2.84139
6.88039,2.83978
6.88814,2.83781
6.89588,2.83533
6.90363,2.83454
6.91138,2.84013
6.91913,2.83535
6.92688,2.82885
6.93462,2.82927
6.94237,2.82409
6.95012,2.82841
6.95787,2.81973
6.96562,2.81787
6.97337,2.81387
6.98111,2.81287
6.98886,2.80891
6.99661,2.79995
7.00436,2.79206
7.01211,2.78856
7.01985,2.77931
7.0276,2.77447
7.03535,2.77092
7.0431,2.76607
7.05085,2.74988
7.0586,2.75071
7.06634,2.73501
7.07409,2.73369
7.08184,2.72714
7.08959,2.71263
7.09734,2.69812
7.10508,2.69181
7.11283,2.67952
7.12058,2.67865
7.12833,2.66097
7.13608,2.64157
7.14383,2.63553
7.15157,2.61513
7.15932,2.6056
7.16707,2.59547
7.17482,2.57969
7.18257,2.56512
7.19031,2.55468
7.19806,2.5426
7.20581,2.52087
7.21356,2.50092
7.22131,2.48884
7.22906,2.47502
7.2368,2.45843
7.24455,2.44197
7.2523,2.42339
7.26005,2.41604
7.2678,2.38889
7.27554,2.36924
7.28329,2.35589
7.29104,2.33301
7.29879,2.32829
7.30654,2.3183
7.31429,2.28815
7.32203,2.2633
7.32978,2.25171
7.33753,2.23393
7.34528,2.22411
7.35303,2.20097
7.36077,2.18376
7.36852,2.16239
7.37627,2.15971
7.38402,2.14543
7.39177,2.11911
7.39952,2.10877
7.40726,2.09269
7.41501,2.07517
7.42276,2.06135
7.43051,2.05207
7.43826,2.03179
7.446,2.0063
7.45375,1.99837
7.4615,1.98512
7.46925,1.96244
7.477,1.97975
7.48475,1.95829
7.49249,1.95051
7.50024,1.93472
7.50799,1.92258
7.51574,1.90608
7.52349,1.89316
7.53123,1.85777
7.53898,1.87004
7.54673,1.85083
7.55448,1.85529
7.56223,1.82339
7.56998,1.82381
7.57772,1.8267
7.58547,1.80679
7.59322,1.81235
7.60097,1.80244
7.60872,1.78255
7.61646,1.79973
7.62421,1.76571
7.63196,1.76896
7.63971,1.75739
7.64746,1.75662
7.65521,1.75778
7.66295,1.75181
7.6707,1.74448
7.67845,1.74345
7.6862,1.74462
7.69395,1.73153
7.70169,1.72074
7.70944,1.72518
7.71719,1.69814
7.72494,1.70331
7.73269,1.69136
7.74044,1.69021
7.74818,1.67595
7.75593,1.6626
7.76368,1.64092
7.77143,1.66045
7.77918,1.65102
7.78692,1.63501
7.79467,1.60654
7.80242,1.61424
7.81017,1.60838
7.81792,1.57802
7.82567,1.57751
7.83341,1.57069
7.84116,1.56746
7.84891,1.54699
7.85666,1.54905
7.86441,1.52221
7.87215,1.51355
7.8799,1.50513
7.88765,1.50031
7.8954,1.47787
7.90315,1.48782
7.9109,1.46951
7.91864,1.44474
7.92639,1.45401
7.93414,1.42196
7.94189,1.38612
7.94964,1.394
7.95738,1.39109
7.96513,1.39314
7.97288,1.38235
7.98063,1.36383
7.98838,1.36761
7.99613,1.36134
8.00387,1.29571
8.01162,1.29479
8.01937,1.32466
8.02712,1.30861
8.03487,1.31064
8.04262,1.29656
8.05036,1.28544
8.05811,1.27556
8.06586,1.25502
8.07361,1.22935
8.08136,1.22309
8.0891,1.19182
8.09685,1.19973
8.1046,1.24829
8.11235,1.17954
8.1201,1.22098
8.12785,1.20569
8.13559,1.2102
8.14334,1.17349
8.15109,1.19021
8.15884,1.15852
8.16659,1.14926
8.17433,1.20128
8.18208,1.12522
8.18983,1.12511
8.19758,1.14932
8.20533,1.15391
8.21308,1.09697
8.22082,1.08376
8.22857,1.07477
8.23632,1.1262
8.24407,1.11979
8.25182,1.08791
8.25956,1.05896
8.26731,1.12824
8.27506,1.12689
8.28281,1.10292
8.29056,1.07303
8.29831,1.08339
8.30605,1.08627
8.3138,1.09371
8.32155,1.08053
8.3293,1.04277
8.33705,1.08272
8.34479,1.09515
8.35254,1.02521
8.36029,1.08702
8.36804,1.08052
8.37579,1.05826
8.38354,1.04198
8.39128,1.06918
8.39903,1.06242
8.40678,1.05165
8.41453,1.06233
8.42228,1.08839
8.43002,1.05811
8.43777,1.01451
8.44552,1.01774
8.45327,1.01102
8.46102,1.01972
8.46877,0.99329
8.47651,1.04128
8.48426,1.00349
8.49201,1.00787
8.49976,1.05446
8.50751,1.0715
8.51525,1.0166
8.523,1.03005
8.53075,0.97045
8.5385,1.02629
8.54625,1.03046
8.554,0.99904
8.56174,1.04477
8.56949,0.99053
8.57724,0.97684
8.58499,1.00197
8.59274,0.98885
8.60048,0.96867
8.60823,0.95152
8.61598,0.95971
8.62373,0.99033
8.63148,1.0093
8.63923,0.99897
8.64697,0.95486
8.65472,0.99133
8.66247,0.98039
8.67022,0.95427
8.67797,0.94304
8.68571,0.94833
8.69346,0.96254
8.70121,0.99373
8.70896,0.93247
8.71671,0.96602
8.72446,0.96705
8.7322,0.98518
8.73995,0.96744
8.7477,0.99945
8.75545,1.00653
8.7632,0.9773
8.77094,0.99774
8.77869,0.97113
8.78644,0.95578
8.79419,0.99655
8.80194,0.97082
8.80969,0.95827
8.81743,0.90756
8.82518,0.9689
8.83293,0.97627
8.84068,0.95387
8.84843,0.90955
8.85617,0.96542
8.86392,0.89615
8.87167,0.96591
8.87942,0.96543
8.88717,0.92419
8.89492,0.9736
8.90266,0.91079
8.91041,0.95541
8.91816,0.94582
8.92591,0.88181
8.93366,0.93346
8.9414,0.94392
8.94915,0.94944
8.9569,0.95702
8.96465,0.93683
8.9724,0.91858
8.98015,0.88566
8.98789,0.95332
8.99564,0.92647
9.00339,0.92948
9.01114,0.90718
9.01889,0.93784
9.02663,0.88934
9.03438,0.92647
9.04213,0.93223
9.04988,0.89669
9.05763,0.88543
9.06538,0.89564
9.07312,0.87629
9.08087,0.91636
9.08862,0.9108
9.09637,0.94466
9.10412,0.88795
9.11186,0.93699
9.11961,0.92746
9.12736,0.93016
9.13511,0.93618
9.14286,0.92243
9.15061,0.89467
9.15835,0.91785
9.1661,0.82785
9.17385,0.92982
9.1816,0.958
9.18935,0.93706
9.19709,0.92625
9.20484,0.90042
9.21259,0.89055
9.22034,0.88067
9.22809,0.95264
9.23584,0.90153
9.24358,0.92536
9.25133,0.88896
9.25908,0.93995
9.26683,0.94756
9.27458,0.96986
9.28232,0.88156
9.29007,0.93645
9.29782,0.90927
9.30557,0.92544
9.31332,0.88118
9.32107,0.92563
9.32881,0.87694
9.33656,0.9002
9.34431,0.9132
9.35206,0.92639
9.35981,0.87894
9.36755,0.89557
9.3753,0.91411
9.38305,0.89792
9.3908,0.92186
9.39855,0.84098
9.4063,0.88563
9.41404,0.90648
9.42179,0.90585
9.42954,0.95089
9.43729,0.95263
9.44504,0.95541
9.45278,0.89601
9.46053,0.94244
9.46828,0.92587
9.47603,0.89569
9.48378,0.88974
9.49153,0.8794
9.49927,0.92599
9.50702,0.91573
9.51477,0.94349
9.52252,0.89212
9.53027,0.90262
9.53801,0.91144
9.54576,0.89314
9.55351,0.95255
9.56126,0.92415
9.56901,0.85246
9.57676,0.91382
9.5845,0.92878
9.59225,0.85006
9.6,0.88132
9.60775,0.89935
