KEV,INTENSITY
0.38493,4.24003
0.39248,4.1852
0.40003,4.13248
0.40757,4.08515
0.41512,4.031
0.42267,3.98593
0.43022,3.93093
0.43777,3.89108
0.44531,3.84778
0.45286,3.7976
0.46041,3.7508
0.46796,3.70823
0.4755,3.66493
0.48305,3.62325
0.4906,3.57508
0.49815,3.53475
0.50569,3.5037
0.51324,3.45673
0.52079,3.42248
0.52834,3.39283
0.53589,3.35358
0.54343,3.3201
0.55098,3.2906
0.55853,3.26275
0.56608,3.22455
0.57362,3.19103
0.58117,3.17168
0.58872,3.14565
0.59627,3.1201
0.60381,3.08448
0.61136,3.06585
0.61891,3.05168
0.62646,3.02543
0.63401,3.00178
0.64155,2.98055
0.6491,2.96123
0.65665,2.9412
0.6642,2.9379
0.67174,2.92513
0.67929,2.88263
0.68684,2.8745
0.69439,2.8608
0.70193,2.84345
0.70948,2.81233
0.71703,2.81925
0.72458,2.80595
0.73213,2.77745
0.73967,2.77755
0.74722,2.765
0.75477,2.73173
0.76232,2.7045
0.76986,2.70593
0.77741,2.68268
0.78496,2.6824
0.79251,2.66433
0.80005,2.65675
0.8076,2.63243
0.81515,2.63263
0.8227,2.6035
0.83025,2.57663
0.83779,2.59208
0.84534,2.59663
0.85289,2.5803
0.86044,2.56333
0.86798,2.51998
0.87553,2.5456
0.88308,2.53375
0.89063,2.52448
0.89817,2.50955
0.90572,2.5322
0.91327,2.52158
0.92082,2.51315
0.92837,2.49188
0.93591,2.49413
0.94346,2.48543
0.95101,2.4952
0.95856,2.48113
0.9661,2.47308
0.97365,2.4739
0.9812,2.44703
0.98875,2.44855
0.99629,2.45
1.00384,2.44043
1.01139,2.41693
1.01894,2.42085
1.02649,2.40783
1.03403,2.39553
1.04158,2.40855
1.04913,2.37353
1.05668,2.39475
1.06422,2.40358
1.07177,2.3773
1.07932,2.37363
1.08687,2.3803
1.09441,2.34613
1.10196,2.34383
1.10951,2.32775
1.11706,2.3568
1.1246,2.28748
1.13215,2.31773
1.1397,2.2834
1.14725,2.28333
1.1548,2.27428
1.16234,2.25433
1.16989,2.21073
1.17744,2.2374
1.18499,2.21815
1.19253,2.22715
1.20008,2.22388
1.20763,2.22365
1.21518,2.20495
1.22272,2.2058
1.23027,2.16718
1.23782,2.20935
1.24537,2.1506
1.25292,2.14493
1.26046,2.17685
1.26801,2.16893
1.27556,2.15653
1.28311,2.15558
1.29065,2.14505
1.2982,2.15065
1.30575,2.17735
1.3133,2.1691
1.32084,2.1405
1.32839,2.19345
1.33594,2.20325
1.34349,2.1986
1.35104,2.1575
1.35858,2.18123
1.36613,2.21005
1.37368,2.20263
1.38123,2.19678
1.38877,2.20995
1.39632,2.24085
1.40387,2.22655
1.41142,2.23393
1.41896,2.22513
1.42651,2.24055
1.43406,2.24235
1.44161,2.24573
1.44916,2.24083
1.4567,2.24523
1.46425,2.24273
1.4718,2.2587
1.47935,2.25243
1.48689,2.295
1.49444,2.24273
1.50199,2.256
1.50954,2.26118
1.51708,2.24453
1.52463,2.25413
1.53218,2.21708
1.53973,2.24793
1.54728,2.24428
1.55482,2.2285
1.56237,2.1827
1.56992,2.22083
1.57747,2.1908
1.58501,2.21198
1.59256,2.21393
1.60011,2.1991
1.60766,2.22
1.6152,2.21673
1.62275,2.18348
1.6303,2.20088
1.63785,2.17225
1.6454,2.16315
1.65294,2.19305
1.66049,2.14983
1.66804,2.17308
1.67559,2.14448
1.68313,2.1555
1.69068,2.1287
1.69823,2.14555
1.70578,2.12675
1.71332,2.1086
1.72087,2.1223
1.72842,2.1106
1.73597,2.14328
1.74351,2.12878
1.75106,2.0585
1.75861,2.12993
1.76616,2.10843
1.77371,2.0909
1.78125,2.10215
1.7888,2.09995
1.79635,2.08
1.8039,2.0847
1.81144,2.05083
1.81899,2.0741
1.82654,2.02905
1.83409,2.026
1.84163,2.025
1.84918,2.01935
1.85673,2.01913
1.86428,1.94078
1.87183,1.88165
1.87937,1.93938
1.88692,1.97045
1.89447,1.93215
1.90202,1.88025
1.90956,1.90808
1.91711,1.91258
1.92466,1.9175
1.93221,1.8612
1.93975,1.87738
1.9473,1.89045
1.95485,1.83025
1.9624,1.84278
1.96995,1.85603
1.97749,1.82798
1.98504,1.83763
1.99259,1.8056
2.00014,1.82163
2.00768,1.79608
2.01523,1.74733
2.02278,1.81155
2.03033,1.76025
2.03787,1.75053
2.04542,1.79818
2.05297,1.76908
2.06052,1.73883
2.06807,1.73268
2.07561,1.73063
2.08316,1.72025
2.09071,1.72478
2.09826,1.7101
2.1058,1.71508
2.11335,1.74968
2.1209,1.7002
2.12845,1.72035
2.13599,1.70148
2.14354,1.73888
2.15109,1.68855
2.15864,1.72618
2.16619,1.71953
2.17373,1.7277
2.18128,1.71453
2.18883,1.7048
2.19638,1.70833
2.20392,1.66715
2.21147,1.71013
2.21902,1.69533
2.22657,1.66138
2.23411,1.68143
2.24166,1.71805
2.24921,1.64218
2.25676,1.6451
2.26431,1.71078
2.27185,1.668
2.2794,1.64855
2.28695,1.6866
2.2945,1.6526
2.30204,1.65125
2.30959,1.68905
2.31714,1.64005
2.32469,1.60695
2.33223,1.56938
2.33978,1.6827
2.34733,1.59725
2.35488,1.58698
2.36243,1.6275
2.36997,1.59365
2.37752,1.64915
2.38507,1.61573
2.39262,1.69003
2.40016,1.54043
2.40771,1.6429
2.41526,1.60033
2.42281,1.56273
2.43035,1.63768
2.4379,1.55975
2.44545,1.53723
2.453,1.53013
2.46054,1.6051
2.46809,1.6226
2.47564,1.54915
2.48319,1.48155
2.49074,1.59148
2.49828,1.66895
2.50583,1.61085
2.51338,1.62575
2.52093,1.61428
2.52847,1.57415
2.53602,1.60168
2.54357,1.67748
2.55112,1.59515
2.55866,1.58283
2.56621,1.53933
2.57376,1.57635
2.58131,1.5713
2.58886,1.62205
2.5964,1.63463
2.60395,1.60835
2.6115,1.62293
2.61905,1.6684
2.62659,1.6625
2.63414,1.62735
2.64169,1.63988
2.64924,1.6301
2.65678,1.70303
2.66433,1.62705
2.67188,1.67988
2.67943,1.604
2.68698,1.67095
2.69452,1.62048
2.70207,1.68168
2.70962,1.64418
2.71717,1.6171
2.72471,1.6668
2.73226,1.70485
2.73981,1.64883
2.74736,1.61098
2.7549,1.67148
2.76245,1.59735
2.77,1.5674
2.77755,1.6838
2.7851,1.63985
2.79264,1.61273
2.80019,1.65743
2.80774,1.60858
2.81529,1.62128
2.82283,1.59228
2.83038,1.60063
2.83793,1.5864
2.84548,1.60848
2.85302,1.5796
2.86057,1.59073
2.86812,1.61645
2.87567,1.5495
2.88322,1.56275
2.89076,1.65263
2.89831,1.67118
2.90586,1.56978
2.91341,1.52065
2.92095,1.5496
2.9285,1.55903
2.93605,1.55215
2.9436,1.59203
2.95114,1.58925
2.95869,1.58225
2.96624,1.58183
2.97379,1.49903
2.98134,1.56938
2.98888,1.55463
2.99643,1.51748
3.00398,1.62473
3.01153,1.52175
3.01907,1.5264
3.02662,1.61445
3.03417,1.57655
3.04172,1.53103
3.04926,1.58378
3.05681,1.60853
3.06436,1.60475
3.07191,1.6116
3.07946,1.5992
3.087,1.6094
3.09455,1.59745
3.1021,1.61453
3.10965,1.58448
3.11719,1.59418
3.12474,1.61405
3.13229,1.69005
3.13984,1.7116
3.14738,1.70223
3.15493,1.73208
3.16248,1.69113
3.17003,1.70658
3.17757,1.74343
3.18512,1.7516
3.19267,1.73565
3.20022,1.76883
3.20777,1.77868
3.21531,1.81565
3.22286,1.80578
3.23041,1.79785
3.23796,1.7922
3.2455,1.81078
3.25305,1.78893
3.2606,1.8843
3.26815,1.84155
3.27569,1.87023
3.28324,1.9004
3.29079,1.89088
3.29834,1.91833
3.30589,1.87625
3.31343,1.90703
3.32098,1.92255
3.32853,1.91963
3.33608,1.92455
3.34362,1.92595
3.35117,1.92763
3.35872,1.96093
3.36627,1.88333
3.37381,1.9404
3.38136,1.94183
3.38891,1.9452
3.39646,1.98718
3.40401,1.94855
3.41155,1.9412
3.4191,1.98048
3.42665,1.95768
3.4342,1.99328
3.44174,1.95345
3.44929,1.96088
3.45684,1.9699
3.46439,1.97925
3.47193,2.04675
3.47948,2.04128
3.48703,2.02855
3.49458,2.06715
3.50213,2.05715
3.50967,2.08385
3.51722,2.13838
3.52477,2.11183
3.53232,2.13915
3.53986,2.16473
3.54741,2.1987
3.55496,2.1756
3.56251,2.2405
3.57005,2.2304
3.5776,2.24623
3.58515,2.29533
3.5927,2.2715
3.60025,2.27795
3.60779,2.3171
3.61534,2.32998
3.62289,2.29858
3.63044,2.3527
3.63798,2.34565
3.64553,2.3461
3.65308,2.34873
3.66063,2.36195
3.66817,2.37918
3.67572,2.37475
3.68327,2.3972
3.69082,2.3689
3.69837,2.37308
3.70591,2.36075
3.71346,2.3686
3.72101,2.36855
3.72856,2.37005
3.7361,2.37103
3.74365,2.34223
3.7512,2.351
3.75875,2.3075
3.76629,2.28908
3.77384,2.27905
3.78139,2.3166
3.78894,2.27463
3.79649,2.25083
3.80403,2.23653
3.81158,2.24878
3.81913,2.19708
3.82668,2.20123
3.83422,2.1827
3.84177,2.17038
3.84932,2.13723
3.85687,2.12688
3.86441,2.12533
3.87196,2.0989
3.87951,2.11773
3.88706,2.0643
3.8946,2.07603
3.90215,2.06378
3.9097,2.00298
3.91725,2.02018
3.9248,1.97153
3.93234,1.99723
3.93989,2.0081
3.94744,1.97715
3.95499,1.9421
3.96253,1.90375
3.97008,1.90498
3.97763,1.90518
3.98518,1.92748
3.99272,1.9153
4.00027,1.87905
4.00782,1.87073
4.01537,1.87863
4.02292,1.8561
4.03046,1.8398
4.03801,1.86313
4.04556,1.85225
4.05311,1.84263
4.06065,1.84318
4.0682,1.84478
4.07575,1.86315
4.0833,1.85058
4.09084,1.84873
4.09839,1.8388
4.10594,1.85053
4.11349,1.83085
4.12104,1.80143
4.12858,1.85858
4.13613,1.80138
4.14368,1.80273
4.15123,1.78618
4.15877,1.82448
4.16632,1.8155
4.17387,1.84265
4.18142,1.80908
4.18896,1.8432
4.19651,1.79408
4.20406,1.73788
4.21161,1.7853
4.21916,1.73838
4.2267,1.8138
4.23425,1.7815
4.2418,1.77438
4.24935,1.8045
4.25689,1.75325
4.26444,1.77593
4.27199,1.8303
4.27954,1.8245
4.28708,1.8306
4.29463,1.83768
4.30218,1.8011
4.30973,1.86838
4.31728,1.871
4.32482,1.89245
4.33237,1.84298
4.33992,1.92523
4.34747,1.90048
4.35501,1.89873
4.36256,1.8976
4.37011,1.90118
4.37766,1.96405
4.3852,1.95313
4.39275,1.97938
4.4003,1.95843
4.40785,1.98905
4.4154,1.9997
4.42294,1.99865
4.43049,2.00983
4.43804,2.00085
4.44559,2.03158
4.45313,2.04553
4.46068,2.06348
4.46823,2.04363
4.47578,2.04158
4.48332,2.04253
4.49087,2.06618
4.49842,2.0546
4.50597,2.07965
4.51351,2.07713
4.52106,2.03665
4.52861,2.0597
4.53616,2.09485
4.54371,2.06808
4.55125,2.03903
4.5588,2.06775
4.56635,2.06088
4.5739,2.05143
4.58144,2.0213
4.58899,2.02823
4.59654,2.02703
4.60409,1.9892
4.61163,2.00608
4.61918,1.976
4.62673,1.98308
4.63428,1.95108
4.64183,1.95605
4.64937,1.9373
4.65692,1.94043
4.66447,1.9342
4.67202,1.90638
4.67956,1.90058
4.68711,1.8559
4.69466,1.8572
4.70221,1.8047
4.70975,1.87135
4.7173,1.87143
4.72485,1.78048
4.7324,1.7683
4.73995,1.78158
4.74749,1.80263
4.75504,1.71405
4.76259,1.7581
4.77014,1.73568
4.77768,1.7434
4.78523,1.78205
4.79278,1.7345
4.80033,1.69778
4.80787,1.6959
4.81542,1.73798
4.82297,1.75745
4.83052,1.74223
4.83807,1.73298
4.84561,1.67583
4.85316,1.72695
4.86071,1.65125
4.86826,1.65705
4.8758,1.70848
4.88335,1.66735
4.8909,1.63158
4.89845,1.64243
4.90599,1.66078
4.91354,1.65945
4.92109,1.73415
4.92864,1.73145
4.93619,1.65288
4.94373,1.70678
4.95128,1.71993
4.95883,1.65983
4.96638,1.69425
4.97392,1.68375
4.98147,1.70605
4.98902,1.7629
4.99657,1.61273
5.00411,1.64225
5.01166,1.68158
5.01921,1.64725
5.02676,1.68785
5.03431,1.64898
5.04185,1.68183
5.0494,1.60193
5.05695,1.70173
5.0645,1.66263
5.07204,1.6351
5.07959,1.62168
5.08714,1.61388
5.09469,1.6159
5.10223,1.6456
5.10978,1.65745
5.11733,1.6037
5.12488,1.58333
5.13243,1.56193
5.13997,1.6129
5.14752,1.70193
5.15507,1.6549
5.16262,1.60853
5.17016,1.5952
5.17771,1.65185
5.18526,1.61523
5.19281,1.70153
5.20035,1.6145
5.2079,1.69368
5.21545,1.65908
5.223,1.6373
5.23054,1.642
5.23809,1.61498
5.24564,1.59205
5.25319,1.61395
5.26074,1.66595
5.26828,1.64915
5.27583,1.5777
5.28338,1.68908
5.29093,1.6019
5.29847,1.6934
5.30602,1.72093
5.31357,1.67953
5.32112,1.64428
5.32866,1.63453
5.33621,1.6925
5.34376,1.63413
5.35131,1.67108
5.35886,1.63945
5.3664,1.69828
5.37395,1.65895
5.3815,1.64228
5.38905,1.73438
5.39659,1.6861
5.40414,1.69028
5.41169,1.66503
5.41924,1.6953
5.42678,1.6856
5.43433,1.66265
5.44188,1.59448
5.44943,1.66693
5.45698,1.65738
5.46452,1.71783
5.47207,1.62485
5.47962,1.67188
5.48717,1.66013
5.49471,1.70048
5.50226,1.711
5.50981,1.65308
5.51736,1.66115
5.5249,1.63375
5.53245,1.59643
5.54,1.6722
5.54755,1.63765
5.5551,1.62845
5.56264,1.6119
5.57019,1.62463
5.57774,1.67863
5.58529,1.6333
5.59283,1.57538
5.60038,1.65793
5.60793,1.59528
5.61548,1.6263
5.62302,1.63373
5.63057,1.64238
5.63812,1.56428
5.64567,1.59238
5.65322,1.62688
5.66076,1.6298
5.66831,1.62965
5.67586,1.66203
5.68341,1.61843
5.69095,1.6085
5.6985,1.5628
5.70605,1.6228
5.7136,1.59685
5.72114,1.61915
5.72869,1.64273
5.73624,1.70833
5.74379,1.7033
5.75134,1.7098
5.75888,1.6771
5.76643,1.66633
5.77398,1.70883
5.78153,1.70695
5.78907,1.70093
5.79662,1.7262
5.80417,1.71208
5.81172,1.7105
5.81926,1.73758
5.82681,1.7245
5.83436,1.66065
5.84191,1.7314
5.84946,1.75965
5.857,1.78688
5.86455,1.78643
5.8721,1.78953
5.87965,1.81163
5.88719,1.78428
5.89474,1.80978
5.90229,1.7772
5.90984,1.81268
5.91738,1.83545
5.92493,1.83363
5.93248,1.85963
5.94003,1.80053
5.94757,1.79528
5.95512,1.75223
5.96267,1.84658
5.97022,1.81113
5.97777,1.86288
5.98531,1.7801
5.99286,1.87303
6.00041,1.82655
6.00796,1.83635
6.0155,1.85808
6.02305,1.85413
6.0306,1.8646
6.03815,1.85405
6.04569,1.8299
6.05324,1.85338
6.06079,1.86783
6.06834,1.89298
6.07589,1.87468
6.08343,1.88113
6.09098,1.88495
6.09853,1.8581
6.10608,1.9081
6.11362,1.9475
6.12117,1.94318
6.12872,1.9674
6.13627,1.94225
6.14381,1.96155
6.15136,2.00315
6.15891,2.00508
6.16646,2.00538
6.17401,2.03453
6.18155,2.03895
6.1891,2.0876
6.19665,2.07228
6.2042,2.11723
6.21174,2.11448
6.21929,2.10068
6.22684,2.15375
6.23439,2.17885
6.24193,2.16898
6.24948,2.19755
6.25703,2.2413
6.26458,2.23433
6.27213,2.26243
6.27967,2.28108
6.28722,2.28665
6.29477,2.3041
6.30232,2.30148
6.30986,2.31405
6.31741,2.31773
6.32496,2.35408
6.33251,2.35665
6.34005,2.3356
6.3476,2.38155
6.35515,2.38143
6.3627,2.36988
6.37025,2.39938
6.37779,2.389
6.38534,2.3948
6.39289,2.4093
6.40044,2.41668
6.40798,2.3971
6.41553,2.4073
6.42308,2.40115
6.43063,2.4189
6.43817,2.40993
6.44572,2.39245
6.45327,2.41215
6.46082,2.36348
6.46837,2.38265
6.47591,2.35853
6.48346,2.3945
6.49101,2.35953
6.49856,2.3804
6.5061,2.37473
6.51365,2.35348
6.5212,2.33468
6.52875,2.35168
6.53629,2.3158
6.54384,2.32878
6.55139,2.2921
6.55894,2.30145
6.56649,2.29965
6.57403,2.27908
6.58158,2.23135
6.58913,2.25025
6.59668,2.24425
6.60422,2.2292
6.61177,2.23558
6.61932,2.229
6.62687,2.2168
6.63441,2.20445
6.64196,2.23585
6.64951,2.22465
6.65706,2.26293
6.6646,2.25028
6.67215,2.24495
6.6797,2.2868
6.68725,2.23435
6.6948,2.2713
6.70234,2.24213
6.70989,2.31315
6.71744,2.315
6.72499,2.31825
6.73253,2.32878
6.74008,2.33068
6.74763,2.3487
6.75518,2.34428
6.76272,2.35103
6.77027,2.4186
6.77782,2.41193
6.78537,2.42015
6.79292,2.42553
6.80046,2.46405
6.80801,2.4742
6.81556,2.47493
6.82311,2.49243
6.83065,2.516
6.8382,2.53535
6.84575,2.52643
6.8533,2.5217
6.86084,2.53163
6.86839,2.54463
6.87594,2.57395
6.88349,2.57693
6.89104,2.5579
6.89858,2.57825
6.90613,2.58018
6.91368,2.59695
6.92123,2.592
6.92877,2.60048
6.93632,2.60765
6.94387,2.61638
6.95142,2.58315
6.95896,2.58528
6.96651,2.59158
6.97406,2.58418
6.98161,2.56585
6.98916,2.55073
6.9967,2.5557
7.00425,2.54915
7.0118,2.55458
7.01935,2.5293
7.02689,2.50188
7.03444,2.52755
7.04199,2.48255
7.04954,2.47723
7.05708,2.45508
7.06463,2.43993
7.07218,2.4214
7.07973,2.42698
7.08728,2.39388
7.09482,2.3826
7.10237,2.32695
7.10992,2.31695
7.11747,2.31568
7.12501,2.30078
7.13256,2.266
7.14011,2.22525
7.14766,2.21913
7.1552,2.1404
7.16275,2.1303
7.1703,2.11078
7.17785,2.07395
7.1854,2.06575
7.19294,2.02893
7.20049,2.018
7.20804,2.00813
7.21559,1.97458
7.22313,1.9339
7.23068,1.89923
7.23823,1.84018
7.24578,1.88363
7.25332,1.82345
7.26087,1.7866
7.26842,1.8161
7.27597,1.77968
7.28351,1.77123
7.29106,1.70928
7.29861,1.66243
7.30616,1.6899
7.31371,1.62445
7.32125,1.70833
7.3288,1.71003
7.33635,1.6622
7.3439,1.67805
7.35144,1.6241
7.35899,1.61005
7.36654,1.60955
7.37409,1.6381
7.38163,1.64
7.38918,1.67983
7.39673,1.6407
7.40428,1.63015
7.41183,1.70193
7.41937,1.66925
7.42692,1.66328
7.43447,1.61295
7.44202,1.66828
7.44956,1.6517
7.45711,1.6524
7.46466,1.72483
7.47221,1.75005
7.47975,1.64823
7.4873,1.65953
7.49485,1.68918
7.5024,1.7211
7.50995,1.70713
7.51749,1.67893
7.52504,1.75775
7.53259,1.7489
7.54014,1.74193
7.54768,1.72718
7.55523,1.77253
7.56278,1.7926
7.57033,1.74968
7.57787,1.74338
7.58542,1.75595
7.59297,1.71938
7.60052,1.78538
7.60807,1.7653
7.61561,1.66898
7.62316,1.7625
7.63071,1.72578
7.63826,1.75293
7.6458,1.7867
7.65335,1.67353
7.6609,1.70833
7.66845,1.7005
7.67599,1.65518
7.68354,1.67603
7.69109,1.73943
7.69864,1.70838
7.70619,1.73693
7.71373,1.67373
7.72128,1.63733
7.72883,1.58673
7.73638,1.67663
7.74392,1.6367
7.75147,1.6323
7.75902,1.6292
7.76657,1.60475
7.77411,1.56595
7.78166,1.5664
7.78921,1.5365
7.79676,1.5377
7.80431,1.57905
7.81185,1.50255
7.8194,1.49998
7.82695,1.52645
7.8345,1.5231
7.84204,1.4086
7.84959,1.44283
7.85714,1.4976
7.86469,1.39355
7.87223,1.412
7.87978,1.30955
7.88733,1.35415
7.89488,1.32218
7.90243,1.35585
7.90997,1.32455
7.91752,1.28
7.92507,1.24838
7.93262,1.25495
7.94016,1.27883
7.94771,1.19345
7.95526,1.26733
7.96281,1.22928
7.97035,1.27098
7.9779,1.2885
7.98545,1.163
7.993,1.07082
8.00054,1.16613
8.00809,1.0972
8.01564,1.14745
8.02319,1.27015
8.03074,1.1606
8.03828,1.19393
8.04583,1.17455
8.05338,1.21383
8.06093,1.24425
8.06847,1.09061
8.07602,1.02637
8.08357,1.135
8.09112,1.22635
8.09866,1.137
8.10621,1.17074
8.11376,1.23713
8.12131,1.1606
8.12886,1.13878
8.1364,1.18525
8.14395,1.0028
8.1515,1.05826
8.15905,1.13295
8.16659,1.11041
8.17414,1.13493
8.18169,1.02571
8.18924,1.04719
8.19678,0.98413
8.20433,1.1252
8.21188,1.18973
8.21943,1.13353
8.22698,1.02265
8.23452,1.09926
8.24207,1.0703
8.24962,1.14515
8.25717,0.9817
8.26471,1.1046
8.27226,1.07507
8.27981,1.0101
8.28736,1.03544
8.2949,0.95684
8.30245,0.98137
8.31,1.00787
8.31755,1.02934
8.3251,0.99647
8.33264,1.09926
8.34019,0.97587
8.34774,0.99448
8.35529,1.05527
8.36283,1.04396
8.37038,0.97192
8.37793,0.94178
8.38548,0.79183
8.39302,1.02655
8.40057,1.06274
8.40812,1.00727
8.41567,1.02405
8.42322,0.91587
8.43076,1.05662
8.43831,1.04245
8.44586,1.04173
8.45341,1.0321
8.46095,0.94541
8.4685,0.82612
8.47605,0.98413
8.4836,1.02495
8.49114,0.90472
8.49869,1.02128
8.50624,0.88632
8.51379,1.00926
8.52134,0.95914
8.52888,0.93705
8.53643,0.76704
8.54398,0.80238
8.55153,1.00592
8.55907,1.01045
8.56662,0.89967
8.57417,0.92899
8.58172,0.97492
8.58926,0.91417
8.59681,0.87629
8.60436,1.07367
8.61191,0.91511
8.61946,0.8493
8.627,0.73612
8.63455,0.86709
8.6421,0.91922
8.64965,0.8752
8.65719,0.88688
8.66474,0.90581
8.67229,0.93596
8.67984,0.8752
8.68738,0.9331
8.69493,0.88908
8.70248,0.91221
8.71003,0.79183
8.71757,0.77114
8.72512,0.69984
8.73267,0.73612
8.74022,0.92561
8.74777,0.7698
8.75531,0.87015
8.76286,0.88493
8.77041,0.77509
8.77796,0.8662
8.7855,0.95914
8.79305,0.95914
8.8006,0.64437
8.80815,0.82217
8.81569,0.72712
8.82324,0.86928
8.83079,0.87019
8.83834,0.90887
8.84589,0.76231
8.85343,0.73107
8.86098,0.7698
8.86853,1.01366
8.87608,1.01871
8.88362,0.92651
8.89117,0.93066
8.89872,0.73107
8.90627,0.59505
8.91381,0.90305
8.92136,0.79183
8.92891,0.85341
8.93646,0.72135
8.94401,0.96943
8.95155,0.81382
8.9591,0.87458
8.96665,0.73856
8.9742,0.88465
8.98174,0.81163
8.98929,0.75592
8.99684,0.72523
9.00439,0.69454
9.01193,0.90472
9.01948,0.91087
9.02703,0.9268
9.03458,0.87015
9.04213,0.61928
9.04967,0.65887
9.05722,0.80632
9.06477,0.83756
9.07232,0.73107
9.07986,0.77815
9.08741,0.69454
9.09496,0.68242
9.10251,0.67031
9.11005,0.82083
9.1176,0.76536
9.12515,0.74557
9.1327,0.75087
9.14025,0.71434
9.14779,0.56382
9.15534,0.57526
9.16289,0.69454
9.17044,0.71128
9.17798,0.87186
9.18553,0.58361
9.19308,0.68705
9.20063,0.61485
9.20817,0.88664
9.21572,0.61485
9.22327,0.62322
9.23082,0.63159
9.23837,0.70155
9.24591,0.71963
9.25346,0.88688
9.26101,0.38908
9.26856,0.58362
9.2761,0.70289
9.28365,0.71433
9.2912,0.76565
9.29875,0.74557
9.30629,0.61709
9.31384,0.7355
9.32139,0.81076
9.32894,0.7821
9.33649,0.59505
9.34403,0.75
9.35158,0.72134
9.35913,0.64608
9.36668,0.70155
9.37422,0.6633
9.38177,0.61485
9.38932,0.75087
9.39687,0.69454
9.40441,0.53959
9.41196,0.67031
9.41951,0.71433
9.42706,0.76537
9.4346,0.6633
9.44215,0.61179
