KEV,INTENSITY
0.396357013,4.817325
0.404128719,4.781875
0.411900425,4.75195
0.419672131,4.71705
0.427443837,4.678575
0.435215543,4.649725
0.44298725,4.615925
0.450758956,4.58205
0.458530662,4.552875
0.466302368,4.521675
0.474074074,4.4851
0.48184578,4.45335
0.489617486,4.414375
0.497389192,4.395725
0.505160899,4.355425
0.512932605,4.322825
0.520704311,4.2944
0.528476017,4.258025
0.536247723,4.227675
0.544019429,4.19435
0.551791135,4.157
0.559562842,4.1297
0.567334548,4.10085
0.575106254,4.066425
0.58287796,4.04395
0.590649666,4.0169
0.598421372,3.98405
0.606193078,3.954525
0.613964784,3.9175
0.621736491,3.895025
0.629508197,3.868625
0.637279903,3.837
0.645051609,3.811175
0.652823315,3.7665
0.660595021,3.72385
0.668366727,3.70695
0.676138434,3.67355
0.68391014,3.66255
0.691681846,3.6582
0.699453552,3.6425
0.707225258,3.6184
0.714996964,3.60325
0.72276867,3.57195
0.730540376,3.547275
0.738312083,3.5288
0.746083789,3.51185
0.753855495,3.492575
0.761627201,3.48465
0.769398907,3.47145
0.777170613,3.4505
0.784942319,3.431825
0.792714026,3.416675
0.800485732,3.394375
0.808257438,3.378525
0.816029144,3.3596
0.82380085,3.343625
0.831572556,3.3299
0.839344262,3.317725
0.847115968,3.29685
0.854887675,3.28635
0.862659381,3.270025
0.870431087,3.26425
0.878202793,3.2387
0.885974499,3.21375
0.893746205,3.22185
0.901517911,3.199575
0.909289617,3.1836
0.917061324,3.1731
0.92483303,3.154075
0.932604736,3.15145
0.940376442,3.1379
0.948148148,3.136925
0.955919854,3.123475
0.96369156,3.1088
0.971463267,3.0948
0.979234973,3.082675
0.987006679,3.062575
0.994778385,3.0577
1.002550091,3.0374
1.010321797,3.027575
1.018093503,3.030725
1.025865209,3.02015
1.033636916,3.001575
1.041408622,2.99595
1.049180328,2.977025
1.056952034,2.966925
1.06472374,2.95235
1.072495446,2.945925
1.080267152,2.93835
1.088038859,2.925325
1.095810565,2.911875
1.103582271,2.897775
1.111353977,2.8903
1.119125683,2.888275
1.126897389,2.8889
1.134669095,2.8424
1.142440801,2.8475
1.150212508,2.8422
1.157984214,2.8378
1.16575592,2.810625
1.173527626,2.8098
1.181299332,2.801575
1.189071038,2.7966
1.196842744,2.79595
1.204614451,2.784075
1.212386157,2.7717
1.220157863,2.760925
1.227929569,2.749875
1.235701275,2.7326
1.243472981,2.73735
1.251244687,2.7105
1.259016393,2.69265
1.2667881,2.70655
1.274559806,2.70575
1.282331512,2.695075
1.290103218,2.659575
1.297874924,2.639125
1.30564663,2.645525
1.313418336,2.6414
1.321190043,2.62305
1.328961749,2.620875
1.336733455,2.6375
1.344505161,2.62875
1.352276867,2.599475
1.360048573,2.590075
1.367820279,2.600375
1.375591985,2.6097
1.383363692,2.581875
1.391135398,2.591525
1.398907104,2.566925
1.40667881,2.548525
1.414450516,2.5654
1.422222222,2.566875
1.429993928,2.538325
1.437765634,2.563125
1.445537341,2.539275
1.453309047,2.5304
1.461080753,2.516825
1.468852459,2.525975
1.476624165,2.530925
1.484395871,2.5126
1.492167577,2.505525
1.499939284,2.50175
1.50771099,2.476525
1.515482696,2.48665
1.523254402,2.491525
1.531026108,2.50625
1.538797814,2.48825
1.54656952,2.49075
1.554341226,2.4688
1.562112933,2.452575
1.569884639,2.489025
1.577656345,2.471
1.585428051,2.448025
1.593199757,2.43565
1.600971463,2.456325
1.608743169,2.3913
1.616514876,2.402175
1.624286582,2.3762
1.632058288,2.366225
1.639829994,2.381275
1.6476017,2.375625
1.655373406,2.36955
1.663145112,2.383825
1.670916818,2.360225
1.678688525,2.39285
1.686460231,2.381075
1.694231937,2.3883
1.702003643,2.3368
1.709775349,2.376875
1.717547055,2.346
1.725318761,2.367725
1.733090468,2.362525
1.740862174,2.35575
1.74863388,2.331975
1.756405586,2.3113
1.764177292,2.321975
1.771948998,2.297825
1.779720704,2.328275
1.78749241,2.307075
1.795264117,2.2924
1.803035823,2.29275
1.810807529,2.271125
1.818579235,2.276175
1.826350941,2.2536
1.834122647,2.250675
1.841894353,2.24735
1.84966606,2.287875
1.857437766,2.2231
1.865209472,2.1946
1.872981178,2.239425
1.880752884,2.201275
1.88852459,2.18185
1.896296296,2.20435
1.904068002,2.17385
1.911839709,2.1745
1.919611415,2.200625
1.927383121,2.175325
1.935154827,2.149025
1.942926533,2.153425
1.950698239,2.1257
1.958469945,2.111425
1.966241651,2.108375
1.974013358,2.11365
1.981785064,2.128475
1.98955677,2.100275
1.997328476,2.06395
2.005100182,2.074575
2.012871888,2.099975
2.020643594,2.086
2.028415301,2.0083
2.036187007,2.048525
2.043958713,2.066875
2.051730419,2.05115
2.059502125,2.062725
2.067273831,2.04315
2.075045537,2.050875
2.082817243,2.022825
2.09058895,2.061475
2.098360656,2.044825
2.106132362,2.028175
2.113904068,2.025
2.121675774,2.052325
2.12944748,2.0308
2.137219186,2.03175
2.144990893,2.0277
2.152762599,2.04945
2.160534305,2.057275
2.168306011,2.06615
2.176077717,2.0208
2.183849423,2.058775
2.191621129,2.0319
2.199392835,2.0418
2.207164542,2.047975
2.214936248,2.04245
2.222707954,1.99645
2.23047966,2.0201
2.238251366,2.0273
2.246023072,2.032575
2.253794778,1.999075
2.261566485,2.036025
2.269338191,1.99455
2.277109897,2.02105
2.284881603,1.964475
2.292653309,2.00375
2.300425015,1.963
2.308196721,2.0095
2.315968427,1.99735
2.323740134,1.993075
2.33151184,1.995375
2.339283546,2.011075
2.347055252,1.957925
2.354826958,2.003775
2.362598664,1.952125
2.37037037,1.914425
2.378142077,1.908175
2.385913783,1.899025
2.393685489,1.95505
2.401457195,1.895175
2.409228901,1.847775
2.417000607,1.856
2.424772313,1.883625
2.432544019,1.8485
2.440315726,1.900125
2.448087432,1.890625
2.455859138,1.886525
2.463630844,1.8718
2.47140255,1.928525
2.479174256,1.846575
2.486945962,1.864225
2.494717668,1.88865
2.502489375,1.8613
2.510261081,1.841075
2.518032787,1.862925
2.525804493,1.83055
2.533576199,1.8811
2.541347905,1.8611
2.549119611,1.8554
2.556891318,1.865
2.564663024,1.8411
2.57243473,1.865625
2.580206436,1.8181
2.587978142,1.831125
2.595749848,1.840675
2.603521554,1.77845
2.61129326,1.814425
2.619064967,1.7903
2.626836673,1.80895
2.634608379,1.7517
2.642380085,1.76685
2.650151791,1.7429
2.657923497,1.7623
2.665695203,1.734025
2.67346691,1.7874
2.681238616,1.814225
2.689010322,1.72655
2.696782028,1.828925
2.704553734,1.791175
2.71232544,1.8069
2.720097146,1.800825
2.727868852,1.75895
2.735640559,1.773125
2.743412265,1.780025
2.751183971,1.806075
2.758955677,1.747975
2.766727383,1.7077
2.774499089,1.7798
2.782270795,1.766075
2.790042502,1.779925
2.797814208,1.764775
2.805585914,1.777225
2.81335762,1.749425
2.821129326,1.80085
2.828901032,1.7705
2.836672738,1.749175
2.844444444,1.77245
2.852216151,1.73565
2.859987857,1.7526
2.867759563,1.72775
2.875531269,1.79235
2.883302975,1.778975
2.891074681,1.781125
2.898846387,1.803775
2.906618094,1.706275
2.9143898,1.759475
2.922161506,1.782725
2.929933212,1.80445
2.937704918,1.79055
2.945476624,1.77415
2.95324833,1.776775
2.961020036,1.760125
2.968791743,1.8312
2.976563449,1.787325
2.984335155,1.76945
2.992106861,1.8187
2.999878567,1.771625
3.007650273,1.7504
3.015421979,1.849425
3.023193685,1.8112
3.030965392,1.832825
3.038737098,1.778075
3.046508804,1.861125
3.05428051,1.846125
3.062052216,1.805675
3.069823922,1.80705
3.077595628,1.80755
3.085367335,1.840075
3.093139041,1.8531
3.100910747,1.873125
3.108682453,1.883925
3.116454159,1.865475
3.124225865,1.9179
3.131997571,1.9077
3.139769277,1.866225
3.147540984,1.8726
3.15531269,1.8698
3.163084396,1.911825
3.170856102,1.9293
3.178627808,1.845975
3.186399514,1.8956
3.19417122,1.94075
3.201942927,1.9566
3.209714633,1.96925
3.217486339,1.94355
3.225258045,1.954675
3.233029751,2.00885
3.240801457,2.025925
3.248573163,1.966425
3.256344869,2.036425
3.264116576,2.03285
3.271888282,2.028725
3.279659988,1.991625
3.287431694,2.036975
3.2952034,2.0682
3.302975106,2.0253
3.310746812,2.06635
3.318518519,2.0844
3.326290225,2.114225
3.334061931,2.090175
3.341833637,2.11925
3.349605343,2.153275
3.357377049,2.17275
3.365148755,2.169225
3.372920461,2.2015
3.380692168,2.182625
3.388463874,2.217925
3.39623558,2.2595
3.404007286,2.26025
3.411778992,2.263925
3.419550698,2.258
3.427322404,2.28685
3.435094111,2.31085
3.442865817,2.30315
3.450637523,2.343475
3.458409229,2.337425
3.466180935,2.3537
3.473952641,2.393475
3.481724347,2.39925
3.489496053,2.396525
3.49726776,2.442225
3.505039466,2.436475
3.512811172,2.4354
3.520582878,2.439525
3.528354584,2.46705
3.53612629,2.450525
3.543897996,2.473925
3.551669702,2.477225
3.559441409,2.4647
3.567213115,2.4573
3.574984821,2.467525
3.582756527,2.484825
3.590528233,2.475775
3.598299939,2.503825
3.606071645,2.5047
3.613843352,2.5294
3.621615058,2.54525
3.629386764,2.53205
3.63715847,2.5405
3.644930176,2.52505
3.652701882,2.527275
3.660473588,2.525675
3.668245294,2.558475
3.676017001,2.53605
3.683788707,2.5575
3.691560413,2.517075
3.699332119,2.5788
3.707103825,2.5483
3.714875531,2.529
3.722647237,2.5386
3.730418944,2.542925
3.73819065,2.51155
3.745962356,2.5466
3.753734062,2.50905
3.761505768,2.51605
3.769277474,2.493425
3.77704918,2.516025
3.784820886,2.4864
3.792592593,2.46535
3.800364299,2.486125
3.808136005,2.44625
3.815907711,2.4764
3.823679417,2.469275
3.831451123,2.434325
3.839222829,2.44155
3.846994536,2.414575
3.854766242,2.429775
3.862537948,2.39145
3.870309654,2.374475
3.87808136,2.3828
3.885853066,2.3919
3.893624772,2.3817
3.901396478,2.355025
3.909168185,2.337975
3.916939891,2.30205
3.924711597,2.33645
3.932483303,2.3393
3.940255009,2.309625
3.948026715,2.292825
3.955798421,2.2442
3.963570128,2.2586
3.971341834,2.27415
3.97911354,2.213925
3.986885246,2.196875
3.994656952,2.18515
4.002428658,2.2039
4.010200364,2.161125
4.01797207,2.16385
4.025743777,2.162825
4.033515483,2.137
4.041287189,2.156925
4.049058895,2.155075
4.056830601,2.14105
4.064602307,2.12155
4.072374013,2.084875
4.080145719,2.0829
4.087917426,2.075075
4.095689132,2.1003
4.103460838,2.043975
4.111232544,2.07835
4.11900425,2.0797
4.126775956,2.050075
4.134547662,2.026875
4.142319369,2.042625
4.150091075,2.058675
4.157862781,2.00915
4.165634487,2.0054
4.173406193,2.003975
4.181177899,2.047075
4.188949605,2.023925
4.196721311,2.01505
4.204493018,2.017925
4.212264724,2.031475
4.22003643,1.99915
4.227808136,2.0537
4.235579842,2.0559
4.243351548,2.025725
4.251123254,2.044775
4.258894961,2.0741
4.266666667,2.049625
4.274438373,2.05875
4.282210079,2.051675
4.289981785,2.076925
4.297753491,2.058375
4.305525197,2.0813
4.313296903,2.086925
4.32106861,2.112125
4.328840316,2.076425
4.336612022,2.1187
4.344383728,2.093525
4.352155434,2.10435
4.35992714,2.13595
4.367698846,2.10925
4.375470553,2.1567
4.383242259,2.144025
4.391013965,2.11365
4.398785671,2.149175
4.406557377,2.154075
4.414329083,2.163775
4.422100789,2.1658
4.429872495,2.157075
4.437644202,2.151225
4.445415908,2.161
4.453187614,2.183175
4.46095932,2.19185
4.468731026,2.190175
4.476502732,2.214475
4.484274438,2.192175
4.492046145,2.1474
4.499817851,2.177675
4.507589557,2.199875
4.515361263,2.179225
4.523132969,2.19095
4.530904675,2.16755
4.538676381,2.158625
4.546448087,2.17225
4.554219794,2.138975
4.5619915,2.14445
4.569763206,2.148225
4.577534912,2.1237
4.585306618,2.129675
4.593078324,2.114675
4.60085003,2.1207
4.608621736,2.0947
4.616393443,2.079025
4.624165149,2.06655
4.631936855,2.0817
4.639708561,2.048075
4.647480267,2.091825
4.655251973,2.056625
4.663023679,2.079325
4.670795386,2.0738
4.678567092,2.06565
4.686338798,2.07165
4.694110504,2.0622
4.70188221,2.061375
4.709653916,2.0133
4.717425622,2.000825
4.725197328,2.0271
4.732969035,1.966675
4.740740741,2.0027
4.748512447,1.97525
4.756284153,1.9651
4.764055859,1.9427
4.771827565,1.9341
4.779599271,1.9633
4.787370978,1.925
4.795142684,1.946325
4.80291439,1.91285
4.810686096,1.943
4.818457802,1.856425
4.826229508,1.917525
4.834001214,1.8812
4.84177292,1.8454
4.849544627,1.871475
4.857316333,1.86075
4.865088039,1.8676
4.872859745,1.866025
4.880631451,1.848525
4.888403157,1.8758
4.896174863,1.876075
4.90394657,1.8535
4.911718276,1.851575
4.919489982,1.8371
4.927261688,1.837625
4.935033394,1.881825
4.9428051,1.855975
4.950576806,1.88665
4.958348512,1.847925
4.966120219,1.818525
4.973891925,1.790475
4.981663631,1.762
4.989435337,1.79405
4.997207043,1.81665
5.004978749,1.831075
5.012750455,1.80405
5.020522162,1.8203
5.028293868,1.823525
5.036065574,1.78095
5.04383728,1.836525
5.051608986,1.8335
5.059380692,1.8417
5.067152398,1.788875
5.074924104,1.858325
5.082695811,1.802
5.090467517,1.79015
5.098239223,1.846025
5.106010929,1.8371
5.113782635,1.83115
5.121554341,1.856575
5.129326047,1.845925
5.137097753,1.835175
5.14486946,1.8421
5.152641166,1.8834
5.160412872,1.843925
5.168184578,1.9094
5.175956284,1.84775
5.18372799,1.870575
5.191499696,1.8657
5.199271403,1.871425
5.207043109,1.854975
5.214814815,1.8963
5.222586521,1.87125
5.230358227,1.88975
5.238129933,1.849225
5.245901639,1.8986
5.253673345,1.935575
5.261445052,1.9185
5.269216758,1.92135
5.276988464,1.94915
5.28476017,1.931225
5.292531876,1.928775
5.300303582,1.97625
5.308075288,1.957575
5.315846995,1.995025
5.323618701,1.9693
5.331390407,1.9576
5.339162113,1.97415
5.346933819,1.96705
5.354705525,1.976275
5.362477231,1.9983
5.370248937,1.9454
5.378020644,1.95675
5.38579235,1.9682
5.393564056,1.984475
5.401335762,2.044275
5.409107468,1.951625
5.416879174,1.981825
5.42465088,1.98025
5.432422587,2.010125
5.440194293,2.016275
5.447965999,2.00685
5.455737705,2.01005
5.463509411,1.991875
5.471281117,2.02465
5.479052823,2.0602
5.486824529,2.010575
5.494596236,2.048875
5.502367942,2.016825
5.510139648,2.01855
5.517911354,2.05905
5.52568306,2.068525
5.533454766,2.0727
5.541226472,2.111875
5.548998179,2.05985
5.556769885,2.0788
5.564541591,2.075
5.572313297,2.1109
5.580085003,2.083975
5.587856709,2.140825
5.595628415,2.136775
5.603400121,2.150675
5.611171828,2.129925
5.618943534,2.120075
5.62671524,2.107
5.634486946,2.09325
5.642258652,2.12195
5.650030358,2.10865
5.657802064,2.16515
5.66557377,2.158675
5.673345477,2.16175
5.681117183,2.163375
5.688888889,2.18105
5.696660595,2.244
5.704432301,2.209025
5.712204007,2.185425
5.719975713,2.21855
5.72774742,2.24785
5.735519126,2.253975
5.743290832,2.269125
5.751062538,2.28105
5.758834244,2.2663
5.76660595,2.3125
5.774377656,2.305125
5.782149362,2.31275
5.789921069,2.3182
5.797692775,2.33595
5.805464481,2.3307
5.813236187,2.34445
5.821007893,2.327525
5.828779599,2.380025
5.836551305,2.3688
5.844323012,2.412775
5.852094718,2.391075
5.859866424,2.4135
5.86763813,2.395025
5.875409836,2.4131
5.883181542,2.44865
5.890953248,2.436
5.898724954,2.4597
5.906496661,2.49185
5.914268367,2.4766
5.922040073,2.46365
5.929811779,2.489925
5.937583485,2.505175
5.945355191,2.5181
5.953126897,2.542575
5.960898604,2.552475
5.96867031,2.5667
5.976442016,2.5723
5.984213722,2.5743
5.991985428,2.572725
5.999757134,2.606675
6.00752884,2.611825
6.015300546,2.62985
6.023072253,2.638225
6.030843959,2.6444
6.038615665,2.663525
6.046387371,2.66765
6.054159077,2.684275
6.061930783,2.70985
6.069702489,2.730275
6.077474196,2.75205
6.085245902,2.73315
6.093017608,2.768975
6.100789314,2.76955
6.10856102,2.795025
6.116332726,2.79235
6.124104432,2.81875
6.131876138,2.822975
6.139647845,2.8385
6.147419551,2.85575
6.155191257,2.865175
6.162962963,2.8714
6.170734669,2.8764
6.178506375,2.895625
6.186278081,2.90225
6.194049787,2.9268
6.201821494,2.940325
6.2095932,2.931875
6.217364906,2.946425
6.225136612,2.9542
6.232908318,2.958
6.240680024,2.97715
6.24845173,2.988575
6.256223437,3.0016
6.263995143,3.015025
6.271766849,2.995475
6.279538555,3.014525
6.287310261,3.0148
6.295081967,3.029925
6.302853673,3.027125
6.310625379,3.04385
6.318397086,3.0412
6.326168792,3.0554
6.333940498,3.04655
6.341712204,3.06225
6.34948391,3.052575
6.357255616,3.05545
6.365027322,3.0615
6.372799029,3.046375
6.380570735,3.062225
6.388342441,3.068025
6.396114147,3.06205
6.403885853,3.0578
6.411657559,3.0585
6.419429265,3.056025
6.427200971,3.046225
6.434972678,3.0548
6.442744384,3.050125
6.45051609,3.045525
6.458287796,3.04365
6.466059502,3.05245
6.473831208,3.041525
6.481602914,3.04205
6.489374621,3.0476
6.497146327,3.032
6.504918033,3.020225
6.512689739,3.0149
6.520461445,3.00035
6.528233151,2.997875
6.536004857,2.996375
6.543776563,2.98885
6.55154827,2.98955
6.559319976,2.9773
6.567091682,2.9168
6.574863388,2.92725
6.582635094,2.91805
6.5904068,2.897825
6.598178506,2.908175
6.605950213,2.908575
6.613721919,2.903275
6.621493625,2.911375
6.629265331,2.904675
6.637037037,2.9032
6.644808743,2.870825
6.652580449,2.87965
6.660352155,2.8753
6.668123862,2.89565
6.675895568,2.87965
6.683667274,2.890975
6.69143898,2.8729
6.699210686,2.871925
6.706982392,2.858725
6.714754098,2.871225
6.722525804,2.85895
6.730297511,2.84005
6.738069217,2.848325
6.745840923,2.8538
6.753612629,2.843925
6.761384335,2.8521
6.769156041,2.839225
6.776927747,2.848875
6.784699454,2.8404
6.79247116,2.8378
6.800242866,2.83385
6.808014572,2.8437
6.815786278,2.828775
6.823557984,2.8335
6.83132969,2.82615
6.839101396,2.841325
6.846873103,2.81305
6.854644809,2.834725
6.862416515,2.8252
6.870188221,2.838275
6.877959927,2.8279
6.885731633,2.831175
6.893503339,2.833925
6.901275046,2.824125
6.909046752,2.8126
6.916818458,2.8166
6.924590164,2.81785
6.93236187,2.8345
6.940133576,2.82385
6.947905282,2.815625
6.955676988,2.8065
6.963448695,2.8066
6.971220401,2.79115
6.978992107,2.795675
6.986763813,2.7956
6.994535519,2.79675
7.002307225,2.784325
7.010078931,2.76725
7.017850638,2.7701
7.025622344,2.75855
7.03339405,2.7525
7.041165756,2.759
7.048937462,2.753725
7.056709168,2.732925
7.064480874,2.71
7.07225258,2.71545
7.080024287,2.699425
7.087795993,2.697075
7.095567699,2.678375
7.103339405,2.680325
7.111111111,2.66665
7.118882817,2.640225
7.126654523,2.65235
7.13442623,2.632175
7.142197936,2.6281
7.149969642,2.60995
7.157741348,2.592225
7.165513054,2.566775
7.17328476,2.5705
7.181056466,2.557925
7.188828172,2.5495
7.196599879,2.50665
7.204371585,2.5109
7.212143291,2.483725
7.219914997,2.462225
7.227686703,2.468725
7.235458409,2.427875
7.243230115,2.426275
7.251001821,2.4048
7.258773528,2.416275
7.266545234,2.366825
7.27431694,2.34905
7.282088646,2.3435
7.289860352,2.34365
7.297632058,2.32735
7.305403764,2.3084
7.313175471,2.25235
7.320947177,2.25115
7.328718883,2.217175
7.336490589,2.2498
7.344262295,2.195325
7.352034001,2.194625
7.359805707,2.16305
7.367577413,2.160875
7.37534912,2.1926
7.383120826,2.12555
7.390892532,2.110725
7.398664238,2.11245
7.406435944,2.112525
7.41420765,2.093075
7.421979356,2.0753
7.429751063,2.05895
7.437522769,2.0011
7.445294475,2.02875
7.453066181,2.003775
7.460837887,1.979475
7.468609593,1.979125
7.476381299,1.941425
7.484153005,1.916375
7.491924712,1.9085
7.499696418,1.90075
7.507468124,1.91655
7.51523983,1.92985
7.523011536,1.912775
7.530783242,1.8736
7.538554948,1.87855
7.546326655,1.829925
7.554098361,1.81255
7.561870067,1.8347
7.569641773,1.774075
7.577413479,1.80415
7.585185185,1.8221
7.592956891,1.83685
7.600728597,1.808725
7.608500304,1.766
7.61627201,1.803875
7.624043716,1.7657
7.631815422,1.74925
7.639587128,1.773225
7.647358834,1.779825
7.65513054,1.691675
7.662902247,1.7556
7.670673953,1.833575
7.678445659,1.767825
7.686217365,1.771875
7.693989071,1.70645
7.701760777,1.761825
7.709532483,1.700125
7.717304189,1.664575
7.725075896,1.73455
7.732847602,1.73325
7.740619308,1.653525
7.748391014,1.74505
7.75616272,1.6701
