KEV,INTENSITY
0.39907,4.86178
0.40689,4.8368
0.41472,4.80393
0.42254,4.76903
0.43037,4.74015
0.43819,4.70448
0.44602,4.66648
0.45384,4.64733
0.46167,4.61143
0.46949,4.58505
0.47732,4.55173
0.48514,4.52298
0.49297,4.489
0.50079,4.4546
0.50862,4.42005
0.51644,4.40835
0.52427,4.36155
0.53209,4.33545
0.53992,4.30425
0.54774,4.26603
0.55556,4.2395
0.56339,4.20413
0.57121,4.16805
0.57904,4.14958
0.58686,4.11185
0.59469,4.09485
0.60251,4.06238
0.61034,4.03065
0.61816,4.00768
0.62599,3.9737
0.63381,3.94415
0.64164,3.92985
0.64946,3.89445
0.65729,3.86875
0.66511,3.82728
0.67294,3.7483
0.68076,3.72945
0.68859,3.7234
0.69641,3.69993
0.70424,3.70483
0.71206,3.67943
0.71989,3.67043
0.72771,3.66585
0.73554,3.64263
0.74336,3.62
0.75119,3.59435
0.75901,3.57148
0.76684,3.55423
0.77466,3.52403
0.78249,3.50605
0.79031,3.4929
0.79814,3.46378
0.80596,3.4557
0.81379,3.43068
0.82161,3.40733
0.82944,3.40303
0.83726,3.37313
0.84508,3.36548
0.85291,3.34405
0.86073,3.32228
0.86856,3.30245
0.87638,3.29658
0.88421,3.25315
0.89203,3.25698
0.89986,3.2307
0.90768,3.21963
0.91551,3.20868
0.92333,3.1926
0.93116,3.16328
0.93898,3.15805
0.94681,3.14908
0.95463,3.1401
0.96246,3.1202
0.97028,3.11263
0.97811,3.10658
0.98593,3.10438
0.99376,3.0729
1.00158,3.06605
1.00941,3.0407
1.01723,3.0404
1.02506,3.01945
1.03288,3.00965
1.04071,3.00243
1.04853,2.98353
1.05636,2.98068
1.06418,2.96373
1.07201,2.95095
1.07983,2.94898
1.08766,2.94203
1.09548,2.92438
1.10331,2.9203
1.11113,2.91858
1.11895,2.9046
1.12678,2.88425
1.1346,2.87275
1.14243,2.8764
1.15025,2.84768
1.15808,2.85485
1.1659,2.82828
1.17373,2.83603
1.18155,2.82343
1.18938,2.8042
1.1972,2.78608
1.20503,2.79913
1.21285,2.78
1.22068,2.79305
1.2285,2.7699
1.23633,2.76593
1.24415,2.76828
1.25198,2.7544
1.2598,2.74155
1.26763,2.7387
1.27545,2.7542
1.28328,2.73505
1.2911,2.71053
1.29893,2.7294
1.30675,2.73425
1.31458,2.7157
1.3224,2.70853
1.33023,2.72305
1.33805,2.70295
1.34588,2.72085
1.3537,2.71333
1.36153,2.7281
1.36935,2.70158
1.37718,2.71395
1.385,2.68443
1.39282,2.69798
1.40065,2.67988
1.40847,2.6982
1.4163,2.67885
1.42412,2.6834
1.43195,2.67725
1.43977,2.66573
1.4476,2.65998
1.45542,2.68463
1.46325,2.67673
1.47107,2.654
1.4789,2.64263
1.48672,2.6467
1.49455,2.63275
1.50237,2.62728
1.5102,2.63068
1.51802,2.63438
1.52585,2.61235
1.53367,2.5998
1.5415,2.60295
1.54932,2.58838
1.55715,2.58443
1.56497,2.5738
1.5728,2.55773
1.58062,2.54745
1.58845,2.53308
1.59627,2.53458
1.6041,2.54425
1.61192,2.52395
1.61975,2.5053
1.62757,2.50288
1.6354,2.45145
1.64322,2.4325
1.65105,2.41363
1.65887,2.44158
1.66669,2.4475
1.67452,2.44163
1.68234,2.4584
1.69017,2.46105
1.69799,2.46245
1.70582,2.454
1.71364,2.43538
1.72147,2.45873
1.72929,2.42963
1.73712,2.43495
1.74494,2.43693
1.75277,2.41153
1.76059,2.40508
1.76842,2.37913
1.77624,2.3673
1.78407,2.3816
1.79189,2.37028
1.79972,2.33833
1.80754,2.35365
1.81537,2.34768
1.82319,2.34548
1.83102,2.32355
1.83884,2.34105
1.84667,2.31873
1.85449,2.34633
1.86232,2.30818
1.87014,2.34093
1.87797,2.3334
1.88579,2.29075
1.89362,2.3032
1.90144,2.2847
1.90927,2.29808
1.91709,2.2905
1.92492,2.30008
1.93274,2.27223
1.94056,2.28533
1.94839,2.24688
1.95621,2.28088
1.96404,2.28543
1.97186,2.2644
1.97969,2.25915
1.98751,2.26583
1.99534,2.25618
2.00316,2.25158
2.01099,2.22935
2.01881,2.27735
2.02664,2.1952
2.03446,2.1939
2.04229,2.23923
2.05011,2.21708
2.05794,2.21848
2.06576,2.2204
2.07359,2.1929
2.08141,2.20213
2.08924,2.22018
2.09706,2.21005
2.10489,2.1871
2.11271,2.1605
2.12054,2.19773
2.12836,2.1406
2.13619,2.15993
2.14401,2.17248
2.15184,2.14778
2.15966,2.1133
2.16749,2.1792
2.17531,2.1226
2.18314,2.108
2.19096,2.10185
2.19879,2.144
2.20661,2.13505
2.21444,2.10273
2.22226,2.12548
2.23008,2.0922
2.23791,2.09135
2.24573,2.07323
2.25356,2.06218
2.26138,2.077
2.26921,2.05158
2.27703,2.0744
2.28486,2.14113
2.29268,2.06908
2.30051,2.07388
2.30833,2.08038
2.31616,2.05985
2.32398,2.0779
2.33181,2.06825
2.33963,2.03928
2.34746,2.05113
2.35528,2.0722
2.36311,2.06738
2.37093,2.0793
2.37876,2.05708
2.38658,2.0387
2.39441,2.0576
2.40223,2.03873
2.41006,2.05075
2.41788,2.02778
2.42571,2.05485
2.43353,2.05428
2.44136,2.01525
2.44918,1.98888
2.45701,2.05938
2.46483,2.024
2.47266,2.01823
2.48048,2.02738
2.48831,2.02183
2.49613,1.98603
2.50395,1.98135
2.51178,1.992
2.5196,2.03765
2.52743,2.02898
2.53525,2.01778
2.54308,1.988
2.5509,1.9912
2.55873,1.99938
2.56655,1.9336
2.57438,1.9629
2.5822,1.95808
2.59003,1.98313
2.59785,1.94903
2.60568,1.96425
2.6135,1.94103
2.62133,1.9426
2.62915,1.93138
2.63698,1.92043
2.6448,1.96518
2.65263,1.94258
2.66045,1.92313
2.66828,1.81473
2.6761,1.8153
2.68393,1.8942
2.69175,1.86383
2.69958,1.86968
2.7074,1.91808
2.71523,1.8528
2.72305,1.88643
2.73088,1.87888
2.7387,1.85535
2.74653,1.90248
2.75435,1.88965
2.76218,1.81328
2.77,1.80488
2.77782,1.77775
2.78565,1.82328
2.79347,1.77213
2.8013,1.8367
2.80912,1.89673
2.81695,1.76318
2.82477,1.79938
2.8326,1.80465
2.84042,1.79118
2.84825,1.82758
2.85607,1.7885
2.8639,1.78118
2.87172,1.84905
2.87955,1.80085
2.88737,1.77728
2.8952,1.81528
2.90302,1.79373
2.91085,1.72443
2.91867,1.74555
2.9265,1.75158
2.93432,1.76988
2.94215,1.7904
2.94997,1.74068
2.9578,1.7267
2.96562,1.82495
2.97345,1.77493
2.98127,1.78315
2.9891,1.804
2.99692,1.7949
3.00475,1.77413
3.01257,1.7862
3.0204,1.83135
3.02822,1.80765
3.03605,1.82073
3.04387,1.75348
3.05169,1.77003
3.05952,1.82673
3.06734,1.78938
3.07517,1.82555
3.08299,1.80825
3.09082,1.77503
3.09864,1.8497
3.10647,1.86515
3.11429,1.81573
3.12212,1.84753
3.12994,1.81678
3.13777,1.84228
3.14559,1.8695
3.15342,1.80073
3.16124,1.8681
3.16907,1.8726
3.17689,1.85918
3.18472,1.90423
3.19254,1.9265
3.20037,1.9243
3.20819,1.89875
3.21602,1.882
3.22384,1.88703
3.23167,1.88258
3.23949,1.9074
3.24732,1.90915
3.25514,1.91145
3.26297,1.9343
3.27079,1.8906
3.27862,1.92398
3.28644,1.91703
3.29427,1.9827
3.30209,2.02248
3.30992,2.00935
3.31774,1.98045
3.32556,1.9884
3.33339,2.01715
3.34121,2.04205
3.34904,2.0471
3.35686,2.0636
3.36469,2.06935
3.37251,2.09038
3.38034,2.0817
3.38816,2.10733
3.39599,2.10373
3.40381,2.094
3.41164,2.16015
3.41946,2.1593
3.42729,2.16933
3.43511,2.15745
3.44294,2.22213
3.45076,2.19178
3.45859,2.23948
3.46641,2.2329
3.47424,2.28615
3.48206,2.2908
3.48989,2.27795
3.49771,2.2844
3.50554,2.29188
3.51336,2.2973
3.52119,2.3692
3.52901,2.345
3.53684,2.36743
3.54466,2.37598
3.55249,2.36903
3.56031,2.40638
3.56814,2.39188
3.57596,2.38828
3.58379,2.40645
3.59161,2.4019
3.59944,2.41948
3.60726,2.3494
3.61508,2.3555
3.62291,2.37643
3.63073,2.39873
3.63856,2.40068
3.64638,2.44103
3.65421,2.47253
3.66203,2.48415
3.66986,2.47648
3.67768,2.46685
3.68551,2.46643
3.69333,2.46715
3.70116,2.45483
3.70898,2.46883
3.71681,2.46853
3.72463,2.4622
3.73246,2.46303
3.74028,2.4402
3.74811,2.4496
3.75593,2.47658
3.76376,2.43933
3.77158,2.4413
3.77941,2.3975
3.78723,2.4265
3.79506,2.43078
3.80288,2.40548
3.81071,2.41165
3.81853,2.3935
3.82636,2.39068
3.83418,2.36963
3.84201,2.37155
3.84983,2.37193
3.85766,2.34465
3.86548,2.34388
3.87331,2.3436
3.88113,2.33083
3.88895,2.29853
3.89678,2.29505
3.9046,2.2788
3.91243,2.26718
3.92025,2.29693
3.92808,2.2472
3.9359,2.25673
3.94373,2.25028
3.95155,2.22415
3.95938,2.2299
3.9672,2.14405
3.97503,2.19885
3.98285,2.19058
3.99068,2.15105
3.9985,2.1494
4.00633,2.12183
4.01415,2.1318
4.02198,2.12075
4.0298,2.0773
4.03763,2.07728
4.04545,2.07175
4.05328,2.108
4.0611,2.0431
4.06893,2.04025
4.07675,2.05858
4.08458,2.061
4.0924,1.98965
4.10023,2.01278
4.10805,1.9636
4.11588,2.01075
4.1237,1.94613
4.13153,1.94753
4.13935,1.9704
4.14718,1.96783
4.155,1.89503
4.16282,1.94323
4.17065,1.92145
4.17847,1.89285
4.1863,1.87098
4.19412,1.87095
4.20195,1.8507
4.20977,1.86485
4.2176,1.8241
4.22542,1.8245
4.23325,1.88243
4.24107,1.83073
4.2489,1.86078
4.25672,1.8349
4.26455,1.84055
4.27237,1.8152
4.2802,1.8053
4.28802,1.85713
4.29585,1.82023
4.30367,1.86275
4.3115,1.83648
4.31932,1.8507
4.32715,1.83235
4.33497,1.88383
4.3428,1.8577
4.35062,1.87993
4.35845,1.89778
4.36627,1.89203
4.3741,1.8915
4.38192,1.8714
4.38975,1.89538
4.39757,1.90118
4.4054,1.8877
4.41322,1.92088
4.42105,1.9021
4.42887,1.903
4.43669,1.95035
4.44452,1.9478
4.45234,1.92275
4.46017,1.95048
4.46799,1.91803
4.47582,1.96765
4.48364,1.96625
4.49147,1.95815
4.49929,1.95618
4.50712,1.9413
4.51494,1.92658
4.52277,1.9498
4.53059,1.93963
4.53842,1.9681
4.54624,1.9464
4.55407,1.98265
4.56189,1.98378
4.56972,1.91853
4.57754,1.93475
4.58537,1.92653
4.59319,1.85393
4.60102,1.8728
4.60884,1.92508
4.61667,1.85403
4.62449,1.85145
4.63232,1.90213
4.64014,1.90965
4.64797,1.91983
4.65579,1.9141
4.66362,1.9067
4.67144,1.9538
4.67927,1.89823
4.68709,1.87998
4.69492,1.89513
4.70274,1.88078
4.71056,1.90248
4.71839,1.85388
4.72621,1.84498
4.73404,1.79908
4.74186,1.83155
4.74969,1.8611
4.75751,1.84988
4.76534,1.85545
4.77316,1.7954
4.78099,1.8441
4.78881,1.8384
4.79664,1.80703
4.80446,1.75553
4.81229,1.7912
4.82011,1.77205
4.82794,1.76083
4.83576,1.78095
4.84359,1.7233
4.85141,1.81075
4.85924,1.7272
4.86706,1.7765
4.87489,1.74443
4.88271,1.67653
4.89054,1.72193
4.89836,1.74663
4.90619,1.6902
4.91401,1.6972
4.92184,1.7136
4.92966,1.67333
4.93749,1.65685
4.94531,1.67878
4.95314,1.69825
4.96096,1.6957
4.96879,1.66403
4.97661,1.62218
4.98444,1.67425
4.99226,1.66375
5.00008,1.67143
5.00791,1.62485
5.01573,1.59098
5.02356,1.58378
5.03138,1.54058
5.03921,1.57928
5.04703,1.63095
5.05486,1.6304
5.06268,1.67758
5.07051,1.63273
5.07833,1.66595
5.08616,1.6406
5.09398,1.61265
5.10181,1.60328
5.10963,1.6522
5.11746,1.5668
5.12528,1.62758
5.13311,1.64963
5.14093,1.62793
5.14876,1.62888
5.15658,1.54413
5.16441,1.62535
5.17223,1.5656
5.18006,1.56848
5.18788,1.63933
5.19571,1.64815
5.20353,1.56415
5.21136,1.6428
5.21918,1.64868
5.22701,1.61073
5.23483,1.61985
5.24266,1.62203
5.25048,1.59095
5.25831,1.61343
5.26613,1.61445
5.27395,1.60213
5.28178,1.6779
5.2896,1.6556
5.29743,1.64425
5.30525,1.6491
5.31308,1.63988
5.3209,1.65905
5.32873,1.5963
5.33655,1.64938
5.34438,1.59005
5.3522,1.63153
5.36003,1.65405
5.36785,1.64725
5.37568,1.61198
5.3835,1.6071
5.39133,1.62578
5.39915,1.59055
5.40698,1.55318
5.4148,1.60508
5.42263,1.5996
5.43045,1.64663
5.43828,1.6772
5.4461,1.56038
5.45393,1.64478
5.46175,1.63935
5.46958,1.58975
5.4774,1.62835
5.48523,1.68983
5.49305,1.58998
5.50088,1.60203
5.5087,1.6065
5.51653,1.69213
5.52435,1.62728
5.53218,1.6064
5.54,1.6342
5.54782,1.6876
5.55565,1.6528
5.56347,1.65945
5.5713,1.61435
5.57912,1.56118
5.58695,1.63988
5.59477,1.66368
5.6026,1.68308
5.61042,1.60225
5.61825,1.61155
5.62607,1.57555
5.6339,1.64653
5.64172,1.65333
5.64955,1.67885
5.65737,1.65983
5.6652,1.64263
5.67302,1.59108
5.68085,1.60758
5.68867,1.58105
5.6965,1.6408
5.70432,1.63333
5.71215,1.6393
5.71997,1.6225
5.7278,1.59985
5.73562,1.6703
5.74345,1.67708
5.75127,1.70673
5.7591,1.73103
5.76692,1.73103
5.77475,1.5845
5.78257,1.67123
5.7904,1.69308
5.79822,1.74915
5.80605,1.72068
5.81387,1.75135
5.82169,1.72843
5.82952,1.74328
5.83734,1.79565
5.84517,1.69885
5.85299,1.7227
5.86082,1.74703
5.86864,1.71498
5.87647,1.73408
5.88429,1.76315
5.89212,1.76955
5.89994,1.79983
5.90777,1.73595
5.91559,1.75278
5.92342,1.76453
5.93124,1.7833
5.93907,1.77278
5.94689,1.80193
5.95472,1.80635
5.96254,1.82068
5.97037,1.84088
5.97819,1.84753
5.98602,1.8367
5.99384,1.83445
6.00167,1.8986
6.00949,1.85698
6.01732,1.89578
6.02514,1.88845
6.03297,1.89528
6.04079,1.92373
6.04862,1.94438
6.05644,1.938
6.06427,1.94428
6.07209,1.96408
6.07992,1.9727
6.08774,1.97703
6.09556,2.00775
6.10339,1.97483
6.11121,1.99573
6.11904,1.99385
6.12686,2.0391
6.13469,2.042
6.14251,2.0437
6.15034,2.0349
6.15816,2.09705
6.16599,2.08668
6.17381,2.12018
6.18164,2.1109
6.18946,2.13455
6.19729,2.14988
6.20511,2.134
6.21294,2.15958
6.22076,2.18815
6.22859,2.17435
6.23641,2.20628
6.24424,2.20263
6.25206,2.22433
6.25989,2.1999
6.26771,2.22033
6.27554,2.2418
6.28336,2.2333
6.29119,2.25678
6.29901,2.26043
6.30684,2.27868
6.31466,2.30358
6.32249,2.2921
6.33031,2.27645
6.33814,2.3108
6.34596,2.31533
6.35379,2.31713
6.36161,2.34773
6.36944,2.346
6.37726,2.32575
6.38508,2.33185
6.39291,2.32898
6.40073,2.3352
6.40856,2.354
6.41638,2.35435
6.42421,2.34183
6.43203,2.32678
6.43986,2.35073
6.44768,2.30825
6.45551,2.34383
6.46333,2.35293
6.47116,2.3492
6.47898,2.36183
6.48681,2.34855
6.49463,2.3267
6.50246,2.37645
6.51028,2.32203
6.51811,2.35365
6.52593,2.34445
6.53376,2.3566
6.54158,2.32728
6.54941,2.34325
6.55723,2.33408
6.56506,2.3159
6.57288,2.3298
6.58071,2.33245
6.58853,2.31385
6.59636,2.33293
6.60418,2.29308
6.61201,2.30708
6.61983,2.28093
6.62766,2.2193
6.63548,2.25003
6.64331,2.22293
6.65113,2.25418
6.65895,2.2667
6.66678,2.3031
6.6746,2.28225
6.68243,2.29358
6.69025,2.31005
6.69808,2.30395
6.7059,2.30913
6.71373,2.3174
6.72155,2.28055
6.72938,2.3057
6.7372,2.29763
6.74503,2.32163
6.75285,2.29528
6.76068,2.3251
6.7685,2.30793
6.77633,2.30345
6.78415,2.34108
6.79198,2.31663
6.7998,2.3044
6.80763,2.31695
6.81545,2.34423
6.82328,2.3349
6.8311,2.31555
6.83893,2.34595
6.84675,2.33328
6.85458,2.38223
6.8624,2.33528
6.87023,2.36093
6.87805,2.3409
6.88588,2.3444
6.8937,2.3649
6.90153,2.34013
6.90935,2.3703
6.91718,2.36483
6.925,2.36353
6.93282,2.3692
6.94065,2.36288
6.94847,2.37863
6.9563,2.34883
6.96412,2.36918
6.97195,2.32698
6.97977,2.36405
6.9876,2.34385
6.99542,2.35955
7.00325,2.3615
7.01107,2.3494
7.0189,2.35503
7.02672,2.35048
7.03455,2.3271
7.04237,2.31885
7.0502,2.32565
7.05802,2.3059
7.06585,2.30623
7.07367,2.29253
7.0815,2.26813
7.08932,2.28923
7.09715,2.2849
7.10497,2.2207
7.1128,2.26668
7.12062,2.22133
7.12845,2.2313
7.13627,2.22738
7.1441,2.20683
7.15192,2.22605
7.15975,2.16715
7.16757,2.1745
7.1754,2.17928
7.18322,2.19355
7.19105,2.20715
7.19887,2.14518
7.20669,2.08915
7.21452,2.1394
7.22234,2.06858
7.23017,2.07453
7.23799,2.07903
7.24582,2.04173
7.25364,2.00533
7.26147,2.04333
7.26929,2.02205
7.27712,1.9831
7.28494,1.97355
7.29277,2.00703
7.30059,1.94498
7.30842,1.98148
7.31624,1.90105
7.32407,1.91173
7.33189,1.9149
7.33972,1.89298
7.34754,1.87708
7.35537,1.87075
7.36319,1.82235
7.37102,1.8025
7.37884,1.80293
7.38667,1.82493
7.39449,1.78095
7.40232,1.82803
7.41014,1.77553
7.41797,1.724
7.42579,1.82945
7.43362,1.74028
7.44144,1.77493
7.44927,1.77628
7.45709,1.7622
7.46492,1.73298
7.47274,1.77263
7.48056,1.67833
7.48839,1.75038
7.49621,1.7053
7.50404,1.68465
7.51186,1.75095
7.51969,1.68303
7.52751,1.68995
7.53534,1.6561
7.54316,1.70333
7.55099,1.65863
7.55881,1.71915
7.56664,1.65988
7.57446,1.62855
7.58229,1.65263
7.59011,1.68518
7.59794,1.63268
7.60576,1.61475
7.61359,1.55638
7.62141,1.53968
7.62924,1.53078
7.63706,1.6061
7.64489,1.61143
7.65271,1.6047
7.66054,1.58233
7.66836,1.58283
7.67619,1.594
7.68401,1.58643
7.69184,1.57173
7.69966,1.55518
7.70749,1.54633
7.71531,1.5321
7.72314,1.53575
7.73096,1.6625
7.73879,1.51695
7.74661,1.59785
7.75444,1.52443
7.76226,1.5273
7.77008,1.51845
7.77791,1.56655
7.78573,1.51478
7.79356,1.52053
7.80138,1.43008
7.80921,1.43998
7.81703,1.47995
7.82486,1.5279
7.83268,1.42145
7.84051,1.46353
7.84833,1.4611
7.85616,1.4409
7.86398,1.38388
7.87181,1.42453
7.87963,1.4916
7.88746,1.45378
7.89528,1.42498
7.90311,1.46308
7.91093,1.39878
7.91876,1.40248
7.92658,1.36483
7.93441,1.35558
7.94223,1.38245
7.95006,1.27313
7.95788,1.35358
7.96571,1.32823
7.97353,1.27703
7.98136,1.45058
7.98918,1.2425
7.99701,1.23375
8.00483,1.32678
8.01266,1.27098
8.02048,1.22248
8.02831,1.33675
8.03613,1.20995
8.04395,1.27988
8.05178,1.23628
8.0596,1.24868
8.06743,1.2667
8.07525,1.27098
8.08308,1.1681
8.0909,1.12602
8.09873,1.15888
8.10655,1.1756
8.11438,1.1879
8.1222,1.31595
8.13003,1.22178
8.13785,1.12945
8.14568,1.14193
8.1535,1.08817
8.16133,1.10785
8.16915,1.10035
8.17698,1.16005
8.1848,1.11393
8.19263,1.22663
8.20045,1.20603
8.20828,1.18735
8.2161,1.11328
8.22393,1.07843
8.23175,1.0976
8.23958,1.13831
8.2474,0.98974
8.25523,1.1949
8.26305,1.06185
8.27088,1.00221
8.2787,1.19575
8.28653,1.12353
8.29435,1.2145
8.30218,1.03883
8.31,1.15265
8.31782,1.04489
8.32565,1.0053
8.33347,1.06274
8.3413,1.04372
8.34912,1.00592
8.35695,1.06807
8.36477,1.04489
8.3726,1.04579
8.38042,0.92285
8.38825,1.00176
8.39607,0.97301
8.4039,0.97831
8.41172,0.85736
8.41955,0.95489
8.42737,0.98108
8.4352,0.9256
8.44302,1.00392
8.45085,1.05695
8.45867,0.97135
8.4665,0.92166
8.47432,0.71433
8.48215,0.81382
8.48997,0.91416
8.4978,1.04077
8.50562,1.04245
8.51345,0.83891
8.52127,0.91087
8.5291,0.89194
8.53692,0.84091
8.54475,0.80238
8.55257,0.85036
8.5604,0.9123
8.56822,0.89194
8.57605,0.88465
8.58387,0.90887
8.59169,0.75836
8.59952,0.85341
8.60734,0.89832
8.61517,0.63908
8.62299,0.7676
8.63082,0.71963
8.63864,0.80218
8.64647,0.62629
8.65429,0.75087
8.66212,0.80103
8.66994,0.78959
8.67777,0.67031
8.68559,0.46433
8.69342,0.80768
8.70124,0.82836
8.70907,0.60035
8.71689,0.67031
8.72472,0.64608
8.73254,0.61928
8.74037,0.79094
8.74819,0.59505
8.75602,0.64943
8.76384,0.65581
8.77167,0.56382
8.77949,0.69454
8.78732,0.65581
8.79514,0.61179
8.80297,0.59505
8.81079,0.79489
8.81862,0.73413
8.82644,0.61485
8.83427,0.70684
8.84209,0.82612
8.84992,0.77815
8.85774,0.66755
8.86556,0.42031
8.87339,0.75836
8.88121,0.74781
8.88904,0.64776
8.89686,0.46433
8.90469,0.70684
8.91251,0.65887
8.92034,0.53959
8.92816,0.81912
8.93599,0.59505
8.94381,0.44454
8.95164,0.50836
8.95946,0.58056
8.96729,0.71433
8.97511,0.63159
8.98294,0.61179
8.99076,0.75087
8.99859,0.53258
9.00641,0.55238
9.01424,0.44454
9.02206,0.61928
9.02989,0.75836
9.03771,0.67031
9.04554,0.65581
9.05336,0.61709
9.06119,0.6633
9.06901,0.69011
9.07684,0.63908
9.08466,0.73107
9.09249,0.56007
9.10031,0.38908
9.10814,0.58056
9.11596,0.46433
9.12379,0.59505
9.13161,0.38908
9.13944,0.45444
9.14726,0.5198
9.15508,0.5
9.16291,0.69011
9.17073,0.53959
9.17856,0.57372
9.18638,0.60784
9.19421,0.48856
9.20203,0.5517
9.20986,0.61485
9.21768,0.53959
9.22551,0.54402
9.23333,0.55633
9.24116,0.42031
9.24898,0.5198
9.25681,0.73413
9.26463,0.71433
9.27246,0.68705
9.28028,0.73107
9.28811,0.62629
9.29593,0.57526
9.30376,0.69011
9.31158,0.53258
9.31941,0.54402
9.32723,0.4331
9.33506,0.58056
9.34288,0.32526
9.35071,0.5198
9.35853,0.46433
9.36636,0.62764
9.37418,0.61485
9.38201,0.32526
9.38983,0.62629
9.39766,0.53959
9.40548,0.72134
9.41331,0.61485
9.42113,0.63159
9.42895,0.67031
9.43678,0.49557
9.4446,0.61485
9.45243,0.48856
9.46025,0.5198
9.46808,0.5268
9.4759,0.71877
9.48373,0.64608
9.49155,0.73612
9.49938,0.60784
9.5072,0.64437
9.51503,0.67363
9.52285,0.70289
9.53068,0.7768
9.5385,0.60206
9.54633,0.79489
9.55415,0.60784
9.56198,0.77404
9.5698,0.45155
9.57763,0.67031
9.58545,0.69235
9.59328,0.81138
9.6011,0.65052
9.60893,0.69984
9.61675,0.63159
9.62458,0.59505
9.6324,0.82083
9.64023,0.58056
9.64805,0.57083
9.65588,0.64776
9.6637,0.65581
9.67153,0.71433
9.67935,0.78211
9.68718,0.62629
9.695,0.7553
9.70282,0.87519
9.71065,0.44454
9.71847,0.85903
9.7263,0.76536
9.73412,0.69454
9.74195,0.56382
9.74977,0.84505
9.7576,0.46433
9.76542,0.7751
9.77325,0.68004
9.78107,0.7698
