KEV,INTENSITY
0.38896,4.52595
0.39659,4.48031
0.40421,4.43693
0.41184,4.39242
0.41947,4.34807
0.42709,4.30398
0.43472,4.26192
0.44235,4.21867
0.44997,4.1759
0.4576,4.13396
0.46523,4.09112
0.47285,4.05163
0.48048,4.01065
0.48811,3.972
0.49573,3.93151
0.50336,3.89193
0.51099,3.85735
0.51861,3.81801
0.52624,3.78239
0.53387,3.75034
0.54149,3.71417
0.54912,3.67931
0.55675,3.64919
0.56437,3.61009
0.572,3.58175
0.57963,3.55431
0.58725,3.51869
0.59488,3.48763
0.60251,3.45896
0.61013,3.4346
0.61776,3.41154
0.62539,3.38463
0.63301,3.35676
0.64064,3.3259
0.64827,3.3056
0.65589,3.28778
0.66352,3.26335
0.67115,3.23523
0.67877,3.21115
0.6864,3.19599
0.69403,3.17061
0.70165,3.15599
0.70928,3.13517
0.71691,3.11624
0.72453,3.10392
0.73216,3.08349
0.73979,3.06745
0.74741,3.04263
0.75504,3.03072
0.76267,3.02189
0.77029,2.99879
0.77792,2.98962
0.78555,2.97564
0.79317,2.96114
0.8008,2.94542
0.80843,2.93485
0.81605,2.91703
0.82368,2.90527
0.83131,2.89303
0.83893,2.87199
0.84656,2.86211
0.85419,2.84793
0.86181,2.83804
0.86944,2.83173
0.87706,2.82439
0.88469,2.80018
0.89232,2.78992
0.89994,2.77155
0.90757,2.7573
0.9152,2.74702
0.92282,2.7499
0.93045,2.73379
0.93808,2.72542
0.9457,2.71772
0.95333,2.70385
0.96096,2.68588
0.96858,2.68024
0.97621,2.68496
0.98384,2.66649
0.99146,2.65509
0.99909,2.64613
1.00672,2.63444
1.01434,2.6126
1.02197,2.61315
1.0296,2.59176
1.03722,2.58782
1.04485,2.57252
1.05248,2.55455
1.0601,2.54738
1.06773,2.55309
1.07536,2.52929
1.08298,2.52756
1.09061,2.50215
1.09824,2.49482
1.10586,2.47878
1.11349,2.47539
1.12112,2.46174
1.12874,2.44432
1.13637,2.44409
1.144,2.4267
1.15162,2.4237
1.15925,2.41733
1.16688,2.39046
1.1745,2.40719
1.18213,2.38189
1.18976,2.37647
1.19738,2.36269
1.20501,2.36466
1.21264,2.35519
1.22026,2.35552
1.22789,2.33866
1.23552,2.32833
1.24314,2.32604
1.25077,2.32103
1.2584,2.29631
1.26602,2.31395
1.27365,2.30133
1.28128,2.29856
1.2889,2.28673
1.29653,2.27764
1.30416,2.27197
1.31178,2.2753
1.31941,2.27836
1.32704,2.27388
1.33466,2.25952
1.34229,2.26308
1.34992,2.26869
1.35754,2.25884
1.36517,2.2652
1.3728,2.26434
1.38042,2.27103
1.38805,2.25833
1.39568,2.25373
1.4033,2.25354
1.41093,2.25596
1.41856,2.26969
1.42618,2.24292
1.43381,2.25229
1.44144,2.25595
1.44906,2.25097
1.45669,2.26455
1.46432,2.22853
1.47194,2.2561
1.47957,2.27164
1.4872,2.25049
1.49482,2.25651
1.50245,2.25188
1.51008,2.24874
1.5177,2.25499
1.52533,2.24892
1.53296,2.24235
1.54058,2.23781
1.54821,2.24555
1.55584,2.24192
1.56346,2.23645
1.57109,2.23588
1.57872,2.22099
1.58634,2.22079
1.59397,2.22919
1.6016,2.22962
1.60922,2.22825
1.61685,2.21532
1.62448,2.21015
1.6321,2.20799
1.63973,2.20172
1.64736,2.1874
1.65498,2.19382
1.66261,2.19406
1.67024,2.18042
1.67786,2.17035
1.68549,2.15803
1.69312,2.18384
1.70074,2.17594
1.70837,2.16265
1.716,2.14988
1.72362,2.13561
1.73125,2.13825
1.73888,2.12967
1.7465,2.12705
1.75413,2.10925
1.76176,2.10458
1.76938,2.08681
1.77701,2.08004
1.78464,2.09599
1.79226,2.06216
1.79989,2.07639
1.80752,2.05184
1.81514,2.04606
1.82277,2.03992
1.8304,2.0159
1.83802,2.01174
1.84565,2.00449
1.85328,2.00535
1.8609,2.00847
1.86853,1.99402
1.87616,1.97565
1.88378,1.98057
1.89141,1.9954
1.89904,1.97625
1.90666,1.9772
1.91429,1.98682
1.92192,1.97429
1.92954,1.96283
1.93717,1.93775
1.9448,1.95257
1.95242,1.9417
1.96005,1.94236
1.96768,1.92665
1.9753,1.92989
1.98293,1.91555
1.99056,1.92782
1.99818,1.92925
2.00581,1.91334
2.01344,1.90283
2.02106,1.91679
2.02869,1.88318
2.03632,1.88233
2.04394,1.88613
2.05157,1.88178
2.0592,1.86172
2.06682,1.83839
2.07445,1.8477
2.08208,1.86813
2.0897,1.8325
2.09733,1.86131
2.10496,1.81975
2.11258,1.82912
2.12021,1.80344
2.12784,1.79496
2.13546,1.80929
2.14309,1.82554
2.15072,1.78169
2.15834,1.79785
2.16597,1.76969
2.1736,1.77379
2.18122,1.75618
2.18885,1.78472
2.19648,1.77507
2.2041,1.7675
2.21173,1.76612
2.21936,1.70184
2.22698,1.71789
2.23461,1.72606
2.24224,1.73748
2.24986,1.73721
2.25749,1.74681
2.26512,1.70236
2.27274,1.69455
2.28037,1.73344
2.288,1.73082
2.29562,1.71885
2.30325,1.72185
2.31088,1.71436
2.3185,1.69345
2.32613,1.68239
2.33376,1.71252
2.34138,1.70799
2.34901,1.70692
2.35664,1.68325
2.36426,1.68893
2.37189,1.71355
2.37952,1.71298
2.38714,1.69817
2.39477,1.69102
2.4024,1.69245
2.41002,1.69184
2.41765,1.68758
2.42528,1.66147
2.4329,1.67264
2.44053,1.70852
2.44816,1.66105
2.45578,1.69582
2.46341,1.66311
2.47104,1.68349
2.47866,1.6614
2.48629,1.66411
2.49392,1.66758
2.50154,1.64299
2.50917,1.67049
2.5168,1.68964
2.52442,1.68564
2.53205,1.64883
2.53968,1.63215
2.5473,1.65154
2.55493,1.63688
2.56256,1.6394
2.57018,1.66404
2.57781,1.62294
2.58544,1.65907
2.59306,1.63424
2.60069,1.60922
2.60831,1.63672
2.61594,1.63839
2.62357,1.59542
2.63119,1.58122
2.63882,1.59153
2.64645,1.58833
2.65407,1.57078
2.6617,1.56055
2.66933,1.59025
2.67695,1.54555
2.68458,1.58206
2.69221,1.53452
2.69983,1.58564
2.70746,1.50502
2.71509,1.5136
2.72271,1.52635
2.73034,1.4967
2.73797,1.53925
2.74559,1.49712
2.75322,1.43858
2.76085,1.41582
2.76847,1.43975
2.7761,1.43446
2.78373,1.44665
2.79135,1.39733
2.79898,1.38332
2.80661,1.37899
2.81423,1.40129
2.82186,1.37117
2.82949,1.36793
2.83711,1.37801
2.84474,1.34062
2.85237,1.35663
2.85999,1.35761
2.86762,1.34889
2.87525,1.37555
2.88287,1.34235
2.8905,1.395
2.89813,1.34262
2.90575,1.38158
2.91338,1.32875
2.92101,1.3945
2.92863,1.388
2.93626,1.36265
2.94389,1.39002
2.95151,1.39965
2.95914,1.40687
2.96677,1.33032
2.97439,1.40473
2.98202,1.35727
2.98965,1.42928
2.99727,1.40471
3.0049,1.38696
3.01253,1.43521
3.02015,1.41456
3.02778,1.43572
3.03541,1.44931
3.04303,1.49227
3.05066,1.44549
3.05829,1.47605
3.06591,1.50068
3.07354,1.52927
3.08117,1.54281
3.08879,1.50002
3.09642,1.56185
3.10405,1.5136
3.11167,1.56965
3.1193,1.57562
3.12693,1.61519
3.13455,1.58745
3.14218,1.63327
3.14981,1.64455
3.15743,1.67901
3.16506,1.66211
3.17269,1.62264
3.18031,1.69855
3.18794,1.69655
3.19557,1.70779
3.20319,1.70464
3.21082,1.75612
3.21845,1.747
3.22607,1.75619
3.2337,1.75249
3.24133,1.75972
3.24895,1.80305
3.25658,1.78564
3.26421,1.80532
3.27183,1.84586
3.27946,1.84153
3.28709,1.852
3.29471,1.85925
3.30234,1.86405
3.30997,1.89498
3.31759,1.91002
3.32522,1.88962
3.33285,1.90042
3.34047,1.93202
3.3481,1.95312
3.35573,1.94464
3.36335,1.95122
3.37098,1.98495
3.37861,2.01019
3.38623,2.04385
3.39386,2.03395
3.40149,2.06312
3.40911,2.09793
3.41674,2.08032
3.42437,2.11225
3.43199,2.12852
3.43962,2.15026
3.44725,2.17393
3.45487,2.18221
3.4625,2.18785
3.47013,2.24159
3.47775,2.22918
3.48538,2.25748
3.49301,2.2771
3.50063,2.29646
3.50826,2.31436
3.51589,2.31104
3.52351,2.35822
3.53114,2.36999
3.53877,2.37352
3.54639,2.38529
3.55402,2.40855
3.56165,2.41401
3.56927,2.45892
3.5769,2.45452
3.58453,2.46453
3.59215,2.46671
3.59978,2.46716
3.60741,2.48512
3.61503,2.49487
3.62266,2.51352
3.63029,2.51867
3.63791,2.52575
3.64554,2.52497
3.65317,2.533
3.66079,2.52949
3.66842,2.53847
3.67605,2.53013
3.68367,2.51579
3.6913,2.52816
3.69893,2.52315
3.70655,2.51352
3.71418,2.51522
3.72181,2.49455
3.72943,2.50059
3.73706,2.49138
3.74469,2.48876
3.75231,2.48477
3.75994,2.47102
3.76757,2.46199
3.77519,2.45632
3.78282,2.42787
3.79045,2.43575
3.79807,2.433
3.8057,2.41138
3.81333,2.39526
3.82095,2.38113
3.82858,2.38325
3.83621,2.37027
3.84383,2.37873
3.85146,2.35297
3.85909,2.33022
3.86671,2.29776
3.87434,2.29467
3.88197,2.27101
3.88959,2.25365
3.89722,2.25183
3.90485,2.23213
3.91247,2.22212
3.9201,2.21059
3.92773,2.18046
3.93535,2.17242
3.94298,2.14012
3.95061,2.14386
3.95823,2.12889
3.96586,2.09716
3.97349,2.11169
3.98111,2.08309
3.98874,2.07523
3.99637,2.06919
4.00399,2.06622
4.01162,2.03837
4.01925,2.04948
4.02687,2.04262
4.0345,1.98267
4.04213,2.02135
4.04975,1.96972
4.05738,1.97989
4.06501,1.97865
4.07263,1.97486
4.08026,1.95363
4.08789,1.9286
4.09551,1.92223
4.10314,1.90749
4.11077,1.91444
4.11839,1.89412
4.12602,1.90089
4.13365,1.89756
4.14127,1.88659
4.1489,1.88229
4.15653,1.86164
4.16415,1.88314
4.17178,1.88156
4.17941,1.86022
4.18703,1.8592
4.19466,1.85722
4.20229,1.85825
4.20991,1.8654
4.21754,1.87039
4.22517,1.84621
4.23279,1.86895
4.24042,1.89277
4.24805,1.90025
4.25567,1.89634
4.2633,1.90869
4.27093,1.89479
4.27855,1.93181
4.28618,1.93965
4.29381,1.94215
4.30143,1.94099
4.30906,1.95292
4.31669,1.99218
4.32431,1.98245
4.33194,2.00085
4.33956,2.01497
4.34719,2.02707
4.35482,2.04559
4.36244,2.07335
4.37007,2.05544
4.3777,2.08435
4.38532,2.07117
4.39295,2.09825
4.40058,2.09029
4.4082,2.11554
4.41583,2.12906
4.42346,2.14129
4.43108,2.13081
4.43871,2.14366
4.44634,2.14182
4.45396,2.15546
4.46159,2.16933
4.46922,2.16519
4.47684,2.16901
4.48447,2.15869
4.4921,2.17162
4.49972,2.16294
4.50735,2.17818
4.51498,2.167
4.5226,2.17547
4.53023,2.16482
4.53786,2.15518
4.54548,2.15523
4.55311,2.15349
4.56074,2.14905
4.56836,2.14167
4.57599,2.13829
4.58362,2.12379
4.59124,2.12169
4.59887,2.10859
4.6065,2.10055
4.61412,2.09209
4.62175,2.07208
4.62938,2.08127
4.637,2.04496
4.64463,2.05346
4.65226,2.00939
4.65988,2.00134
4.66751,1.97403
4.67514,1.9784
4.68276,1.95495
4.69039,1.96558
4.69802,1.94896
4.70564,1.93184
4.71327,1.90369
4.7209,1.91122
4.72852,1.88443
4.73615,1.89919
4.74378,1.87885
4.7514,1.85912
4.75903,1.84615
4.76666,1.82245
4.77428,1.83973
4.78191,1.80801
4.78954,1.81773
4.79716,1.83197
4.80479,1.82032
4.81242,1.7806
4.82004,1.79284
4.82767,1.80258
4.8353,1.77891
4.84292,1.76775
4.85055,1.70947
4.85818,1.7589
4.8658,1.74411
4.87343,1.74646
4.88106,1.73625
4.88868,1.74605
4.89631,1.69186
4.90394,1.73782
4.91156,1.75002
4.91919,1.70395
4.92682,1.73268
4.93444,1.72494
4.94207,1.71978
4.9497,1.72015
4.95732,1.71245
4.96495,1.72652
4.97258,1.69958
4.9802,1.73098
4.98783,1.72828
4.99546,1.70664
5.00308,1.70282
5.01071,1.69305
5.01834,1.71737
5.02596,1.67205
5.03359,1.71889
5.04122,1.73724
5.04884,1.73482
5.05647,1.71969
5.0641,1.73831
5.07172,1.73386
5.07935,1.70725
5.08698,1.77367
5.0946,1.76061
5.10223,1.75944
5.10986,1.76194
5.11748,1.73942
5.12511,1.78232
5.13274,1.77844
5.14036,1.77818
5.14799,1.77729
5.15562,1.78644
5.16324,1.76751
5.17087,1.82866
5.1785,1.83721
5.18612,1.83087
5.19375,1.81922
5.20138,1.84499
5.209,1.85449
5.21663,1.85959
5.22426,1.892
5.23188,1.87719
5.23951,1.89824
5.24714,1.89302
5.25476,1.89665
5.26239,1.93105
5.27002,1.93469
5.27764,1.92692
5.28527,1.96352
5.2929,1.97314
5.30052,1.95159
5.30815,1.96168
5.31578,1.97368
5.3234,1.97451
5.33103,1.98952
5.33866,1.98772
5.34628,2.00264
5.35391,2.0091
5.36154,2.01621
5.36916,1.99251
5.37679,2.01608
5.38442,2.00758
5.39204,2.0273
5.39967,2.0206
5.4073,2.05096
5.41492,2.03322
5.42255,2.03618
5.43018,2.03866
5.4378,2.04532
5.44543,2.05186
5.45306,2.03835
5.46068,2.04225
5.46831,2.01001
5.47594,2.02605
5.48356,2.07715
5.49119,2.05707
5.49882,2.04482
5.50644,2.03339
5.51407,2.06279
5.5217,2.05049
5.52932,2.03719
5.53695,2.02903
5.54458,2.05474
5.5522,2.02642
5.55983,2.0427
5.56746,2.05708
5.57508,2.02878
5.58271,2.03595
5.59034,2.04009
5.59796,2.03791
5.60559,2.04709
5.61322,2.06629
5.62084,2.0601
5.62847,2.0736
5.6361,2.08001
5.64372,2.06459
5.65135,2.10869
5.65898,2.07836
5.6666,2.09712
5.67423,2.1217
5.68186,2.12194
5.68948,2.10412
5.69711,2.11539
5.70474,2.14385
5.71236,2.14878
5.71999,2.16109
5.72762,2.15372
5.73524,2.16062
5.74287,2.18995
5.7505,2.1969
5.75812,2.20307
5.76575,2.20562
5.77338,2.19624
5.781,2.21522
5.78863,2.23023
5.79626,2.25993
5.80388,2.2533
5.81151,2.2589
5.81914,2.28071
5.82676,2.29909
5.83439,2.28862
5.84202,2.3063
5.84964,2.32399
5.85727,2.34252
5.8649,2.34858
5.87252,2.3615
5.88015,2.37805
5.88778,2.38009
5.8954,2.3837
5.90303,2.38802
5.91066,2.3945
5.91828,2.42162
5.92591,2.41504
5.93354,2.41882
5.94116,2.43953
5.94879,2.4426
5.95642,2.46509
5.96404,2.46375
5.97167,2.48247
5.9793,2.50024
5.98692,2.49217
5.99455,2.51264
6.00218,2.51122
6.0098,2.52787
6.01743,2.52805
6.02506,2.54539
6.03268,2.56848
6.04031,2.57449
6.04794,2.58397
6.05556,2.5996
6.06319,2.61699
6.07081,2.62913
6.07844,2.65412
6.08607,2.66717
6.09369,2.67604
6.10132,2.7003
6.10895,2.71735
6.11657,2.71986
6.1242,2.74971
6.13183,2.75607
6.13945,2.7793
6.14708,2.78196
6.15471,2.80049
6.16233,2.82662
6.16996,2.84657
6.17759,2.86439
6.18521,2.87605
6.19284,2.89375
6.20047,2.90561
6.20809,2.92408
6.21572,2.9328
6.22335,2.93906
6.23097,2.96401
6.2386,2.97439
6.24623,2.9907
6.25385,2.99915
6.26148,3.01748
6.26911,3.02027
6.27673,3.03643
6.28436,3.04299
6.29199,3.05095
6.29961,3.0645
6.30724,3.06655
6.31487,3.08382
6.32249,3.09242
6.33012,3.09044
6.33775,3.10206
6.34537,3.1017
6.353,3.10443
6.36063,3.10466
6.36825,3.11425
6.37588,3.11779
6.38351,3.11754
6.39113,3.11689
6.39876,3.11717
6.40639,3.11399
6.41401,3.11714
6.42164,3.10756
6.42927,3.11545
6.43689,3.10591
6.44452,3.10048
6.45215,3.08883
6.45977,3.09172
6.4674,3.08287
6.47503,3.07882
6.48265,3.06872
6.49028,3.0627
6.49791,3.04875
6.50553,3.04174
6.51316,3.03098
6.52079,3.01619
6.52841,3.01118
6.53604,2.99094
6.54367,2.9859
6.55129,2.97441
6.55892,2.95869
6.56655,2.94744
6.57417,2.93001
6.5818,2.91549
6.58943,2.90231
6.59705,2.89327
6.60468,2.88679
6.61231,2.87153
6.61993,2.85248
6.62756,2.84248
6.63519,2.83458
6.64281,2.81565
6.65044,2.80628
6.65807,2.79547
6.66569,2.78776
6.67332,2.78593
6.68095,2.7759
6.68857,2.7681
6.6962,2.76245
6.70383,2.75294
6.71145,2.75688
6.71908,2.75829
6.72671,2.75501
6.73433,2.75698
6.74196,2.7603
6.74959,2.76488
6.75721,2.76931
6.76484,2.77964
6.77247,2.77337
6.78009,2.78436
6.78772,2.78829
6.79535,2.79599
6.80297,2.79479
6.8106,2.80335
6.81823,2.8027
6.82585,2.81444
6.83348,2.81167
6.84111,2.82286
6.84873,2.82091
6.85636,2.82766
6.86399,2.83946
6.87161,2.83515
6.87924,2.84275
6.88687,2.85016
6.89449,2.84246
6.90212,2.84127
6.90975,2.83708
6.91737,2.84183
6.925,2.84467
6.93263,2.84945
6.94025,2.85019
6.94788,2.84679
6.95551,2.84628
6.96313,2.84159
6.97076,2.83599
6.97839,2.83598
6.98601,2.83629
6.99364,2.82597
7.00127,2.81594
7.00889,2.79915
7.01652,2.81024
7.02415,2.80195
7.03177,2.79438
7.0394,2.78477
7.04703,2.76723
7.05465,2.76035
7.06228,2.75923
7.06991,2.73704
7.07753,2.72831
7.08516,2.70722
7.09279,2.70384
7.10041,2.67202
7.10804,2.66985
7.11567,2.65022
7.12329,2.63931
7.13092,2.61866
7.13855,2.60145
7.14617,2.57524
7.1538,2.56017
7.16143,2.54611
7.16905,2.51858
7.17668,2.50749
7.18431,2.49141
7.19193,2.47671
7.19956,2.45338
7.20719,2.41819
7.21481,2.39726
7.22244,2.37212
7.23007,2.35004
7.23769,2.33069
7.24532,2.32842
7.25295,2.29516
7.26057,2.26052
7.2682,2.24349
7.27583,2.22732
7.28345,2.198
7.29108,2.17208
7.29871,2.15982
7.30633,2.14032
7.31396,2.08922
7.32159,2.07054
7.32921,2.06718
7.33684,2.05212
7.34447,2.03365
7.35209,1.99762
7.35972,1.97682
7.36735,1.97049
7.37497,1.9578
7.3826,1.94497
7.39023,1.92424
7.39785,1.90892
7.40548,1.89355
7.41311,1.89763
7.42073,1.87675
7.42836,1.87353
7.43599,1.83385
7.44361,1.82395
7.45124,1.86015
7.45887,1.81946
7.46649,1.81695
7.47412,1.83175
7.48175,1.82562
7.48937,1.82186
7.497,1.82815
7.50463,1.82568
7.51225,1.79505
7.51988,1.79005
7.52751,1.79179
7.53513,1.81545
7.54276,1.80575
7.55039,1.79873
7.55801,1.7901
7.56564,1.7922
7.57327,1.78479
7.58089,1.81069
7.58852,1.77069
7.59615,1.7504
7.60377,1.79773
7.6114,1.78907
7.61903,1.76384
7.62665,1.76474
7.63428,1.76945
7.64191,1.76162
7.64953,1.73187
7.65716,1.76169
7.66479,1.70995
7.67241,1.75619
7.68004,1.72499
7.68767,1.67866
7.69529,1.69805
7.70292,1.69669
7.71055,1.69099
7.71817,1.67345
7.7258,1.66939
7.73343,1.66606
7.74105,1.66392
7.74868,1.68537
7.75631,1.67019
7.76393,1.68335
7.77156,1.63201
7.77919,1.62579
7.78681,1.61235
7.79444,1.58584
7.80206,1.59111
7.80969,1.57302
7.81732,1.56675
7.82494,1.56804
7.83257,1.51845
7.8402,1.53395
7.84782,1.53712
7.85545,1.48966
7.86308,1.48365
7.8707,1.46677
7.87833,1.44075
7.88596,1.453
7.89358,1.46542
7.90121,1.46064
7.90884,1.40613
7.91646,1.34892
7.92409,1.33918
7.93172,1.4135
7.93934,1.35967
7.94697,1.36067
7.9546,1.36305
7.96222,1.35859
7.96985,1.30134
7.97748,1.27945
7.9851,1.31642
7.99273,1.27445
8.00036,1.29699
8.00798,1.26111
8.01561,1.24153
8.02324,1.22242
8.03086,1.23703
8.03849,1.25008
8.04612,1.26599
8.05374,1.22979
8.06137,1.2131
8.069,1.2478
8.07662,1.20508
8.08425,1.19965
8.09188,1.2402
8.0995,1.12924
8.10713,1.22298
8.11476,1.15251
8.12238,1.14806
8.13001,1.13309
8.13764,1.17873
8.14526,1.16406
8.15289,1.197
8.16052,1.22202
8.16814,1.13222
8.17577,1.16761
8.1834,1.1441
8.19102,1.16201
8.19865,1.15676
8.20628,1.12355
8.2139,1.20526
8.22153,1.15714
8.22916,1.1153
8.23678,1.12037
8.24441,1.0712
8.25204,1.12953
8.25966,1.13502
8.26729,1.07797
8.27492,1.1441
8.28254,1.10453
8.29017,1.13076
8.2978,1.07512
8.30542,1.12568
8.31305,1.15328
8.32068,1.13332
8.3283,1.15323
8.33593,1.15471
8.34356,1.02742
8.35118,1.10286
8.35881,1.11967
8.36644,1.12112
8.37406,1.13797
8.38169,1.1213
8.38932,1.05845
8.39694,1.08314
8.40457,1.05382
8.4122,1.02133
8.41982,1.1054
8.42745,1.08401
8.43508,1.05874
8.4427,1.05753
8.45033,1.0359
8.45796,1.08206
8.46558,1.01885
8.47321,1.04814
8.48084,1.049
8.48846,1.07945
8.49609,1.07449
8.50372,0.99371
8.51134,1.07921
8.51897,1.09204
8.5266,1.06031
8.53422,1.02831
8.54185,1.08429
8.54948,1.00367
8.5571,1.09788
8.56473,0.9671
8.57236,1.09666
8.57998,1.02792
8.58761,1.07763
8.59524,1.10552
8.60286,1.01309
8.61049,1.04606
8.61812,0.99241
8.62574,0.97002
8.63337,1.02304
8.641,1.01318
8.64862,1.00588
8.65625,1.07613
8.66388,0.99925
8.6715,0.96101
8.67913,0.98589
8.68676,0.9943
8.69438,0.93221
8.70201,0.95252
8.70964,0.94359
8.71726,1.00943
8.72489,0.98574
8.73252,1.0584
8.74014,0.9896
8.74777,0.92131
8.7554,0.96565
8.76302,0.88785
8.77065,0.98215
8.77828,0.96752
8.7859,0.99362
8.79353,0.97769
8.80116,1.03122
8.80878,0.99598
8.81641,1.03198
8.82404,1.00209
8.83166,1.02508
8.83929,1.00447
8.84692,0.99473
8.85454,1.02589
8.86217,0.95425
8.8698,0.91258
8.87742,0.99259
8.88505,0.93728
8.89268,0.97755
8.9003,0.96031
8.90793,0.92481
8.91556,0.99958
8.92318,1.01308
8.93081,0.94025
8.93844,0.90602
8.94606,0.96395
8.95369,1.00656
8.96132,0.89946
8.96894,0.8997
8.97657,0.87851
8.9842,0.97657
8.99182,0.94774
8.99945,0.94446
9.00708,0.77018
9.0147,0.88864
9.02233,0.89361
9.02996,0.92927
9.03758,0.96437
9.04521,0.88536
9.05284,0.8179
9.06046,0.88485
9.06809,0.80219
9.07572,0.93804
9.08334,0.91515
9.09097,0.97027
9.0986,0.92891
9.10622,0.91959
9.11385,0.88032
9.12148,0.84602
9.1291,0.79691
9.13673,0.9149
9.14436,0.81661
9.15198,0.9005
9.15961,0.89491
9.16724,0.90617
9.17486,0.92324
9.18249,0.86977
9.19012,0.87344
9.19774,0.90097
9.20537,0.84532
9.213,0.78728
9.22062,0.88879
9.22825,0.82983
9.23588,0.88881
9.2435,0.86264
9.25113,0.84926
9.25876,0.93772
9.26638,0.97731
9.27401,0.87809
9.28164,0.89188
9.28926,0.89295
9.29689,0.85306
9.30452,0.85366
9.31214,0.92721
9.31977,0.8654
9.3274,0.88343
9.33502,0.8838
9.34265,0.90879
9.35028,0.81456
9.3579,0.86797
9.36553,0.91731
9.37316,0.89294
9.38078,0.88794
9.38841,0.84217
9.39604,0.88273
9.40366,0.87845
9.41129,0.91888
9.41892,0.93026
9.42654,0.81668
9.43417,0.90111
9.4418,0.84
9.44942,0.89927
9.45705,0.89964
