KEV,INTENSITY
0.399067797,4.8984
0.406892655,4.8624
0.414717514,4.8363
0.422542373,4.8063
0.430367232,4.7791
0.43819209,4.7384
0.446016949,4.7286
0.453841808,4.6882
0.461666667,4.6748
0.469491525,4.6278
0.477316384,4.5965
0.485141243,4.5676
0.492966102,4.5373
0.50079096,4.5042
0.508615819,4.4805
0.516440678,4.4467
0.524265537,4.4284
0.532090395,4.3963
0.539915254,4.3652
0.547740113,4.3336
0.555564972,4.3073
0.563389831,4.2654
0.571214689,4.2552
0.579039548,4.2135
0.586864407,4.1969
0.594689266,4.146
0.602514124,4.0914
0.610338983,4.045
0.618163842,4.0167
0.625988701,4.0095
0.633813559,4.0288
0.641638418,3.9924
0.649463277,3.9698
0.657288136,3.9464
0.665112994,3.9354
0.672937853,3.9026
0.680762712,3.8905
0.688587571,3.8439
0.696412429,3.8292
0.704237288,3.7888
0.712062147,3.7872
0.719887006,3.7473
0.727711864,3.7353
0.735536723,3.7169
0.743361582,3.6945
0.751186441,3.6659
0.759011299,3.6566
0.766836158,3.6206
0.774661017,3.6169
0.782485876,3.5827
0.790310734,3.5528
0.798135593,3.5542
0.805960452,3.5372
0.813785311,3.503
0.821610169,3.4947
0.829435028,3.4627
0.837259887,3.4631
0.845084746,3.453
0.852909605,3.4275
0.860734463,3.4299
0.868559322,3.3976
0.876384181,3.3688
0.88420904,3.3826
0.892033898,3.3504
0.899858757,3.3471
0.907683616,3.3302
0.915508475,3.3107
0.923333333,3.2894
0.931158192,3.3015
0.938983051,3.2911
0.94680791,3.2693
0.954632768,3.2541
0.962457627,3.2403
0.970282486,3.2251
0.978107345,3.209
0.985932203,3.1884
0.993757062,3.1804
1.001581921,3.1532
1.00940678,3.1735
1.017231638,3.1436
1.025056497,3.1109
1.032881356,3.1079
1.040706215,3.1206
1.048531073,3.0839
1.056355932,3.0871
1.064180791,3.0849
1.07200565,3.0906
1.079830508,3.0535
1.087655367,3.0652
1.095480226,3.0334
1.103305085,3.0734
1.111129944,3.0394
1.118954802,3.0208
1.126779661,3.0099
1.13460452,3.0282
1.142429379,2.9991
1.150254237,2.9845
1.158079096,2.9538
1.165903955,2.9917
1.173728814,2.9731
1.181553672,2.9768
1.189378531,2.9138
1.19720339,2.9238
1.205028249,2.9186
1.212853107,2.9154
1.220677966,2.9106
1.228502825,2.9069
1.236327684,2.8651
1.244152542,2.9128
1.251977401,2.8426
1.25980226,2.8585
1.267627119,2.7945
1.275451977,2.8182
1.283276836,2.8287
1.291101695,2.8261
1.298926554,2.7945
1.306751412,2.791
1.314576271,2.7796
1.32240113,2.8116
1.330225989,2.7574
1.338050847,2.7701
1.345875706,2.7649
1.353700565,2.7709
1.361525424,2.711
1.369350282,2.7419
1.377175141,2.7324
1.385,2.7076
1.392824859,2.6955
1.400649718,2.7388
1.408474576,2.6618
1.416299435,2.6767
1.424124294,2.6405
1.431949153,2.6355
1.439774011,2.6385
1.44759887,2.6561
1.455423729,2.6444
1.463248588,2.6031
1.471073446,2.6201
1.478898305,2.5899
1.486723164,2.6222
1.494548023,2.658
1.502372881,2.567
1.51019774,2.5966
1.518022599,2.5705
1.525847458,2.6075
1.533672316,2.6201
1.541497175,2.5877
1.549322034,2.5966
1.557146893,2.549
1.564971751,2.4487
1.57279661,2.5024
1.580621469,2.5011
1.588446328,2.48
1.596271186,2.4983
1.604096045,2.5263
1.611920904,2.5289
1.619745763,2.5441
1.627570621,2.5276
1.63539548,2.5539
1.643220339,2.5105
1.651045198,2.5119
1.658870056,2.5185
1.666694915,2.5366
1.674519774,2.5011
1.682344633,2.5011
1.690169492,2.4857
1.69799435,2.5024
1.705819209,2.4362
1.713644068,2.5105
1.721468927,2.4518
1.729293785,2.4533
1.737118644,2.433
1.744943503,2.3997
1.752768362,2.4564
1.76059322,2.4955
1.768418079,2.4393
1.776242938,2.4232
1.784067797,2.4314
1.791892655,2.42
1.799717514,2.4425
1.807542373,2.4393
1.815367232,2.3945
1.82319209,2.3747
1.831016949,2.4014
1.838841808,2.3945
1.846666667,2.3892
1.854491525,2.3838
1.862316384,2.3729
1.870141243,2.3838
1.877966102,2.3856
1.88579096,2.3802
1.893615819,2.3655
1.901440678,2.3243
1.909265537,2.3502
1.917090395,2.3541
1.924915254,2.3075
1.932740113,2.3522
1.940564972,2.3365
1.948389831,2.3522
1.956214689,2.3674
1.964039548,2.281
1.971864407,2.3284
1.979689266,2.3444
1.987514124,2.316
1.995338983,2.3365
2.003163842,2.281
2.010988701,2.3464
2.018813559,2.3284
2.026638418,2.2648
2.034463277,2.2765
2.042288136,2.3284
2.050112994,2.2923
2.057937853,2.2455
2.065762712,2.248
2.073587571,2.2695
2.081412429,2.2553
2.089237288,2.2648
2.097062147,2.2742
2.104887006,2.2989
2.112711864,2.2625
2.120536723,2.2068
2.128361582,2.2529
2.136186441,2.2856
2.144011299,2.233
2.151836158,2.2672
2.159661017,2.2148
2.167485876,2.2856
2.175310734,2.2227
2.183135593,2.1732
2.190960452,2.1703
2.198785311,2.1903
2.206610169,2.1903
2.214435028,2.1399
2.222259887,2.1818
2.230084746,2.1847
2.237909605,2.1761
2.245734463,2.1987
2.253559322,2.1847
2.261384181,2.1584
2.26920904,2.1303
2.277033898,2.1673
2.284858757,2.1461
2.292683616,2.0414
2.300508475,2.0864
2.308333333,2.1173
2.316158192,2.0645
2.323983051,2.0682
2.33180791,2.0899
2.339632768,2.0682
2.347457627,2.143
2.355282486,2.0755
2.363107345,2.1173
2.370932203,2.0212
2.378757062,2.1239
2.386581921,2.0645
2.39440678,2.0682
2.402231638,2.0086
2.410056497,2.0864
2.417881356,2.0453
2.425706215,2.0374
2.433531073,2.0569
2.441355932,2.0453
2.449180791,2.0899
2.45700565,2.0294
2.464830508,2.0414
2.472655367,2.0492
2.480480226,2.0682
2.488305085,1.9868
2.496129944,2.0645
2.503954802,1.9823
2.511779661,2.017
2.51960452,1.9868
2.527429379,2.0374
2.535254237,2.0212
2.543079096,2.0453
2.550903955,1.9731
2.558728814,2.0253
2.566553672,1.9956
2.574378531,2.0253
2.58220339,1.9445
2.590028249,1.9243
2.597853107,1.8865
2.605677966,1.8261
2.613502825,1.8808
2.621327684,1.9294
2.629152542,1.9191
2.636977401,1.9912
2.64480226,1.9638
2.652627119,1.9777
2.660451977,1.9912
2.668276836,1.8513
2.676101695,1.9395
2.683926554,1.9956
2.691751412,1.9031
2.699576271,2.0086
2.70740113,1.9085
2.715225989,1.9243
2.723050847,1.9542
2.730875706,1.8921
2.738700565,1.8976
2.746525424,1.9031
2.754350282,1.8451
2.762175141,1.8633
2.77,1.9191
2.777824859,1.9294
2.785649718,1.8129
2.793474576,1.7482
2.801299435,1.8808
2.809124294,1.8129
2.816949153,1.8808
2.824774011,1.9638
2.83259887,1.9191
2.840423729,1.7853
2.848248588,1.8195
2.856073446,1.8513
2.863898305,1.8451
2.871723164,1.9243
2.879548023,1.8325
2.887372881,1.7559
2.89519774,1.7993
2.903022599,1.7993
2.910847458,1.7404
2.918672316,1.7782
2.926497175,1.7404
2.934322034,1.7324
2.942146893,1.7853
2.949971751,1.699
2.95779661,1.6902
2.965621469,1.7076
2.973446328,1.699
2.981271186,1.6021
2.989096045,1.8451
2.996920904,1.7853
3.004745763,1.7709
3.012570621,1.7404
3.02039548,1.8129
3.028220339,1.6628
3.036045198,1.7634
3.043870056,1.7559
3.051694915,1.7853
3.059519774,1.6812
3.067344633,1.8325
3.075169492,1.8062
3.08299435,1.7324
3.090819209,1.7324
3.098644068,1.7243
3.106468927,1.7076
3.114293785,1.7634
3.122118644,1.8325
3.129943503,1.7076
3.137768362,1.7993
3.14559322,1.7243
3.153418079,1.7404
3.161242938,1.8513
3.169067797,1.8808
3.176892655,1.7924
3.184717514,1.7482
3.192542373,1.7924
3.200367232,1.9243
3.20819209,1.8513
3.216016949,1.8062
3.223841808,1.8692
3.231666667,1.8976
3.239491525,1.9031
3.247316384,1.8921
3.255141243,1.8692
3.262966102,1.9445
3.27079096,1.9085
3.278615819,1.9956
3.286440678,1.9345
3.294265537,1.9777
3.302090395,1.9912
3.309915254,1.9294
3.317740113,2.0086
3.325564972,2.1173
3.333389831,2.0792
3.341214689,1.9912
3.349039548,2.0043
3.356864407,2.1239
3.364689266,2.017
3.372514124,2.0607
3.380338983,2.1038
3.388163842,2.1461
3.395988701,2.1004
3.403813559,2.1461
3.411638418,2.1703
3.419463277,2.1584
3.427288136,2.179
3.435112994,2.1584
3.442937853,2.2788
3.450762712,2.243
3.458587571,2.29
3.466412429,2.3729
3.474237288,2.3222
3.482062147,2.316
3.489887006,2.3385
3.497711864,2.3598
3.505536723,2.3181
3.513361582,2.3747
3.521186441,2.3365
3.529011299,2.3284
3.536836158,2.3139
3.544661017,2.3243
3.552485876,2.3054
3.560310734,2.3032
3.568135593,2.3856
3.575960452,2.4031
3.583785311,2.4456
3.591610169,2.4548
3.599435028,2.4249
3.607259887,2.4378
3.615084746,2.4757
3.622909605,2.4742
3.630734463,2.4843
3.638559322,2.444
3.646384181,2.4983
3.65420904,2.4713
3.662033898,2.5051
3.669858757,2.4843
3.677683616,2.4742
3.685508475,2.4533
3.693333333,2.4518
3.701158192,2.4997
3.708983051,2.4969
3.71680791,2.4533
3.724632768,2.4502
3.732457627,2.48
3.740282486,2.4548
3.748107345,2.4425
3.755932203,2.4133
3.763757062,2.4564
3.771581921,2.3655
3.77940678,2.3997
3.787231638,2.4265
3.795056497,2.4116
3.802881356,2.4249
3.810706215,2.3711
3.818531073,2.3345
3.826355932,2.4669
3.834180791,2.3927
3.84200565,2.4082
3.849830508,2.4116
3.857655367,2.3766
3.865480226,2.3636
3.873305085,2.3636
3.881129944,2.3304
3.888954802,2.3324
3.896779661,2.2945
3.90460452,2.3502
3.912429379,2.2989
3.920254237,2.2833
3.928079096,2.2967
3.935903955,2.248
3.943728814,2.2279
3.951553672,2.2504
3.959378531,2.1492
3.96720339,2.2148
3.975028249,2.2355
3.982853107,2.179
3.990677966,2.1492
3.998502825,2.1492
4.006327684,2.1461
4.014152542,2.0792
4.021977401,2.1206
4.02980226,2.1367
4.037627119,2.1492
4.045451977,2.0934
4.053276836,2.1072
4.061101695,2.0828
4.068926554,2.0492
4.076751412,1.9494
4.084576271,1.9823
4.09240113,1.9542
4.100225989,2.0253
4.108050847,2.0492
4.115875706,1.9031
4.123700565,1.959
4.131525424,1.9395
4.139350282,2
4.147175141,1.9494
4.155,1.9777
4.162824859,1.9031
4.170649718,1.8513
4.178474576,1.8062
4.186299435,1.9031
4.194124294,1.9445
4.201949153,1.8513
4.209774011,1.8388
4.21759887,1.8865
4.225423729,1.8451
4.233248588,1.9868
4.241073446,1.7993
4.248898305,1.9243
4.256723164,1.9395
4.264548023,1.8129
4.272372881,1.7076
4.28019774,1.8751
4.288022599,1.8633
4.295847458,1.8808
4.303672316,1.8513
4.311497175,1.7924
4.319322034,1.8808
4.327146893,1.9085
4.334971751,1.8573
4.34279661,1.9445
4.350621469,1.8388
4.358446328,1.9395
4.366271186,1.9243
4.374096045,1.8633
4.381920904,1.8062
4.389745763,1.8573
4.397570621,1.8573
4.40539548,1.8325
4.413220339,1.8808
4.421045198,1.8573
4.428870056,1.8921
4.436694915,1.9542
4.444519774,1.8692
4.452344633,1.8976
4.460169492,1.9191
4.46799435,1.9138
4.475819209,1.9823
4.483644068,1.9445
4.491468927,1.9542
4.499293785,1.8865
4.507118644,1.8808
4.514943503,1.9243
4.522768362,1.9031
4.53059322,1.8865
4.538418079,1.7404
4.546242938,1.8513
4.554067797,1.8573
4.561892655,1.8261
4.569717514,1.8388
4.577542373,1.8325
4.585367232,1.9494
4.59319209,1.959
4.601016949,1.8633
4.608841808,1.8976
4.616666667,1.9294
4.624491525,1.8325
4.632316384,1.9031
4.640141243,1.8573
4.647966102,1.8195
4.65579096,1.8751
4.663615819,1.8261
4.671440678,1.8751
4.679265537,1.8573
4.687090395,1.8388
4.694915254,1.8388
4.702740113,1.9243
4.710564972,1.7993
4.718389831,1.8921
4.726214689,1.8325
4.734039548,1.8325
4.741864407,1.8062
4.749689266,1.7482
4.757514124,1.7924
4.765338983,1.8062
4.773163842,1.7243
4.780988701,1.7924
4.788813559,1.6812
4.796638418,1.8261
4.804463277,1.8808
4.812288136,1.8261
4.820112994,1.7993
4.827937853,1.7634
4.835762712,1.7243
4.843587571,1.6812
4.851412429,1.7782
4.859237288,1.7404
4.867062147,1.7076
4.874887006,1.6335
4.882711864,1.699
4.890536723,1.699
4.898361582,1.6335
4.906186441,1.6628
4.914011299,1.7324
4.921836158,1.716
4.929661017,1.716
4.937485876,1.6232
4.945310734,1.6812
4.953135593,1.699
4.960960452,1.716
4.968785311,1.699
4.976610169,1.5563
4.984435028,1.6721
4.992259887,1.5911
5.000084746,1.6628
5.007909605,1.6335
5.015734463,1.6435
5.023559322,1.699
5.031384181,1.5798
5.03920904,1.5315
5.047033898,1.7482
5.054858757,1.6721
5.062683616,1.6628
5.070508475,1.6812
5.078333333,1.699
5.086158192,1.5315
5.093983051,1.716
5.10180791,1.6532
5.109632768,1.6435
5.117457627,1.6021
5.125282486,1.5563
5.133107345,1.6021
5.140932203,1.5185
5.148757062,1.699
5.156581921,1.6812
5.16440678,1.5441
5.172231638,1.6532
5.180056497,1.6721
5.187881356,1.6532
5.195706215,1.5563
5.203531073,1.6232
5.211355932,1.6335
5.219180791,1.6335
5.22700565,1.6435
5.234830508,1.6128
5.242655367,1.5441
5.250480226,1.6812
5.258305085,1.6902
5.266129944,1.6128
5.273954802,1.6128
5.281779661,1.4914
5.28960452,1.6128
5.297429379,1.6232
5.305254237,1.6812
5.313079096,1.6812
5.320903955,1.6812
5.328728814,1.6335
5.336553672,1.6532
5.344378531,1.7324
5.35220339,1.7782
5.360028249,1.5911
5.367853107,1.6128
5.375677966,1.7853
5.383502825,1.6232
5.391327684,1.7076
5.399152542,1.6628
5.406977401,1.6435
5.41480226,1.6628
5.422627119,1.6021
5.430451977,1.6628
5.438276836,1.6232
5.446101695,1.6628
5.453926554,1.6435
5.461751412,1.6721
5.469576271,1.6812
5.47740113,1.6902
5.485225989,1.6532
5.493050847,1.6902
5.500875706,1.5798
5.508700565,1.7404
5.516525424,1.6128
5.524350282,1.6628
5.532175141,1.6021
5.54,1.5798
5.547824859,1.7076
5.555649718,1.7243
5.563474576,1.6128
5.571299435,1.7404
5.579124294,1.7076
5.586949153,1.7324
5.594774011,1.6532
5.60259887,1.5441
5.610423729,1.4771
5.618248588,1.4314
5.626073446,1.6721
5.633898305,1.6902
5.641723164,1.699
5.649548023,1.6435
5.657372881,1.6812
5.66519774,1.6232
5.673022599,1.6335
5.680847458,1.716
5.688672316,1.6532
5.696497175,1.6902
5.704322034,1.6532
5.712146893,1.7404
5.719971751,1.716
5.72779661,1.699
5.735621469,1.6435
5.743446328,1.699
5.751271186,1.7709
5.759096045,1.7324
5.766920904,1.716
5.774745763,1.7853
5.782570621,1.7559
5.79039548,1.699
5.798220339,1.7076
5.806045198,1.716
5.813870056,1.699
5.821694915,1.6335
5.829519774,1.7782
5.837344633,1.8062
5.845169492,1.7559
5.85299435,1.7482
5.860819209,1.6335
5.868644068,1.8388
5.876468927,1.8865
5.884293785,1.699
5.892118644,1.7782
5.899943503,1.7482
5.907768362,1.8195
5.91559322,1.8062
5.923418079,1.8325
5.931242938,1.8573
5.939067797,1.7404
5.946892655,1.7634
5.954717514,1.8573
5.962542373,1.8451
5.970367232,1.7993
5.97819209,1.8865
5.986016949,1.8388
5.993841808,1.9395
6.001666667,1.9395
6.009491525,1.9638
6.017316384,1.959
6.025141243,1.8976
6.032966102,1.8692
6.04079096,1.9868
6.048615819,1.9731
6.056440678,1.9638
6.064265537,2.0453
6.072090395,2.0212
6.079915254,2.0682
6.087740113,2.0414
6.095564972,2.0682
6.103389831,2.017
6.111214689,2.1523
6.119039548,2.0828
6.126864407,2.0253
6.134689266,2.1492
6.142514124,2.0531
6.150338983,2.1492
6.158163842,2.1761
6.165988701,2.0899
6.173813559,2.143
6.181638418,2.1732
6.189463277,2.2014
6.197288136,2.1818
6.205112994,2.1492
6.212937853,2.2014
6.220762712,2.2529
6.228587571,2.2041
6.236412429,2.2945
6.244237288,2.2122
6.252062147,2.2625
6.259887006,2.2304
6.267711864,2.2227
6.275536723,2.3345
6.283361582,2.3324
6.291186441,2.2765
6.299011299,2.3201
6.306836158,2.3747
6.314661017,2.3284
6.322485876,2.301
6.330310734,2.3502
6.338135593,2.316
6.345960452,2.3284
6.353785311,2.2718
6.361610169,2.3692
6.369435028,2.3784
6.377259887,2.3263
6.385084746,2.3579
6.392909605,2.382
6.400734463,2.356
6.408559322,2.4472
6.416384181,2.3522
6.42420904,2.3927
6.432033898,2.3747
6.439858757,2.3711
6.447683616,2.3365
6.455508475,2.3766
6.463333333,2.356
6.471158192,2.3784
6.478983051,2.3263
6.48680791,2.3962
6.494632768,2.3522
6.502457627,2.3874
6.510282486,2.4048
6.518107345,2.3766
6.525932203,2.3181
6.533757062,2.3579
6.541581921,2.3464
6.54940678,2.2989
6.557231638,2.3201
6.565056497,2.2625
6.572881356,2.2601
6.580706215,2.3054
6.588531073,2.3263
6.596355932,2.3096
6.604180791,2.2833
6.61200565,2.3636
6.619830508,2.3222
6.627655367,2.3692
6.635480226,2.2529
6.643305085,2.3139
6.651129944,2.3032
6.658954802,2.3201
6.666779661,2.3222
6.67460452,2.2967
6.682429379,2.3464
6.690254237,2.3324
6.698079096,2.2355
6.705903955,2.2878
6.713728814,2.2923
6.721553672,2.3075
6.729378531,2.3284
6.73720339,2.301
6.745028249,2.2529
6.752853107,2.3222
6.760677966,2.2945
6.768502825,2.3802
6.776327684,2.3502
6.784152542,2.3692
6.791977401,2.3692
6.79980226,2.3324
6.807627119,2.3424
6.815451977,2.3579
6.823276836,2.3711
6.831101695,2.3979
6.838926554,2.3365
6.846751412,2.3729
6.854576271,2.3729
6.86240113,2.3856
6.870225989,2.3579
6.878050847,2.3404
6.885875706,2.3502
6.893700565,2.42
6.901525424,2.3729
6.909350282,2.3838
6.917175141,2.3674
6.925,2.3784
6.932824859,2.3945
6.940649718,2.3502
6.948474576,2.3345
6.956299435,2.3674
6.964124294,2.3979
6.971949153,2.3579
6.979774011,2.3874
6.98759887,2.3541
6.995423729,2.3365
7.003248588,2.3324
7.011073446,2.301
7.018898305,2.3201
7.026723164,2.2742
7.034548023,2.3222
7.042372881,2.2923
7.05019774,2.29
7.058022599,2.2765
7.065847458,2.2672
7.073672316,2.233
7.081497175,2.2405
7.089322034,2.2765
7.097146893,2.2601
7.104971751,2.2718
7.11279661,2.2068
7.120621469,2.2279
7.128446328,2.2577
7.136271186,2.2148
7.144096045,2.1818
7.151920904,2.179
7.159745763,2.1732
7.167570621,2.2041
7.17539548,2.1271
7.183220339,2.0899
7.191045198,2.1004
7.198870056,2.1004
7.206694915,2.1004
7.214519774,2.0682
7.222344633,2.0899
7.230169492,2.017
7.23799435,2.0682
7.245819209,2
7.253644068,2.0899
7.261468927,2.0414
7.269293785,2.0294
7.277118644,2.0086
7.284943503,1.959
7.292768362,1.9138
7.30059322,1.9868
7.308418079,1.9494
7.316242938,1.9031
7.324067797,1.9138
7.331892655,1.7559
7.339717514,1.8633
7.347542373,1.8195
7.355367232,1.7634
7.36319209,1.6812
7.371016949,1.8751
7.378841808,1.8573
7.386666667,1.9243
7.394491525,1.8921
7.402316384,1.7993
7.410141243,1.8129
7.417966102,1.7559
7.42579096,1.7404
7.433615819,1.7324
7.441440678,1.8692
7.449265537,1.699
7.457090395,1.7482
7.464915254,1.7782
7.472740113,1.6902
7.480564972,1.6021
7.488389831,1.6435
7.496214689,1.6812
7.504039548,1.7404
7.511864407,1.6128
7.519689266,1.6812
7.527514124,1.5563
7.535338983,1.4624
7.543163842,1.6232
7.550988701,1.6232
7.558813559,1.4914
7.566638418,1.6628
7.574463277,1.6532
7.582288136,1.6021
7.590112994,1.5682
7.597937853,1.6532
7.605762712,1.6532
7.613587571,1.699
7.621412429,1.716
7.629237288,1.6628
7.637062147,1.6335
7.644887006,1.5911
7.652711864,1.5911
7.660536723,1.5682
7.668361582,1.6335
7.676186441,1.6812
7.684011299,1.6232
7.691836158,1.4472
7.699661017,1.4771
7.707485876,1.5441
7.715310734,1.4914
7.723135593,1.4914
7.730960452,1.5441
7.738785311,1.5441
7.746610169,1.4624
7.754435028,1.5911
7.762259887,1.5911
7.770084746,1.5563
7.777909605,1.4624
7.785734463,1.6128
7.793559322,1.5563
7.801384181,1.5682
7.80920904,1.5563
7.817033898,1.5051
7.824858757,1.3979
7.832683616,1.5051
7.840508475,1.4624
7.848333333,1.5563
7.856158192,1.5051
7.863983051,1.3222
7.87180791,1.4624
7.879632768,1.4771
7.887457627,1.415
7.895282486,1.415
7.903107345,1.301
7.910932203,1.3979
7.918757062,1.3979
7.926581921,1.415
7.93440678,1.5682
7.942231638,1.415
7.950056497,1.3424
7.957881356,1.301
7.965706215,1.3222
7.973531073,1.4472
7.981355932,1.3424
7.989180791,1.3424
7.99700565,1.4314
8.004830508,1.3979
8.012655367,1.2304
8.020480226,1.3617
8.028305085,1.3802
8.036129944,0.95424
8.043954802,1.1761
8.051779661,1.1139
8.05960452,1.3617
8.067429379,1.3617
8.075254237,1.2041
8.083079096,1.2041
8.090903955,1.301
8.098728814,1.1461
8.106553672,1.3424
8.114378531,1.2553
8.12220339,1.0792
8.130028249,1.3424
8.137853107,1.3222
8.145677966,1.301
8.153502825,1.3979
8.161327684,1.2041
8.169152542,1.3617
8.176977401,1.2041
8.18480226,1.1761
8.192627119,1.3617
8.200451977,1.2553
8.208276836,1.3424
8.216101695,1.1761
8.223926554,1.1761
8.231751412,1.2788
8.239576271,1.301
8.24740113,1.2041
8.255225989,1.3222
8.263050847,1.1461
8.270875706,1.301
8.278700565,0.95424
8.286525424,1.1461
8.294350282,1.3222
