KEV,INTENSITY
0.39612,4.78073
0.40388,4.7443
0.41165,4.7052
0.41942,4.66918
0.42718,4.6341
0.43495,4.59843
0.44272,4.56093
0.45049,4.52905
0.45825,4.4876
0.46602,4.45405
0.47379,4.41718
0.48155,4.37965
0.48932,4.34785
0.49709,4.31375
0.50485,4.27993
0.51262,4.2509
0.52039,4.21298
0.52816,4.17955
0.53592,4.14575
0.54369,4.11393
0.55146,4.08225
0.55922,4.0496
0.56699,4.02185
0.57476,3.99403
0.58252,3.95225
0.59029,3.91898
0.59806,3.89055
0.60583,3.85923
0.61359,3.83438
0.62136,3.8061
0.62913,3.77398
0.63689,3.75615
0.64466,3.73125
0.65243,3.70173
0.66019,3.681
0.66796,3.65328
0.67573,3.6219
0.6835,3.59365
0.69126,3.55798
0.69903,3.51875
0.7068,3.4875
0.71456,3.47498
0.72233,3.44345
0.7301,3.41018
0.73786,3.42278
0.74563,3.43318
0.7534,3.42088
0.76117,3.4117
0.76893,3.39023
0.7767,3.37678
0.78447,3.35433
0.79223,3.33388
0.8,3.30565
0.80777,3.29693
0.81553,3.28363
0.8233,3.2638
0.83107,3.24385
0.83883,3.23375
0.8466,3.22013
0.85437,3.1977
0.86214,3.20193
0.8699,3.17623
0.87767,3.15978
0.88544,3.15493
0.8932,3.1258
0.90097,3.12403
0.90874,3.1142
0.9165,3.09318
0.92427,3.07973
0.93204,3.06293
0.93981,3.0488
0.94757,3.03953
0.95534,3.02045
0.96311,3.01988
0.97087,2.98998
0.97864,2.98093
0.98641,2.98635
0.99417,2.95638
1.00194,2.95835
1.00971,2.94545
1.01748,2.93798
1.02524,2.91685
1.03301,2.91383
1.04078,2.90935
1.04854,2.883
1.05631,2.86895
1.06408,2.88205
1.07184,2.87193
1.07961,2.85355
1.08738,2.8496
1.09515,2.82728
1.10291,2.82025
1.11068,2.81705
1.11845,2.78838
1.12621,2.78925
1.13398,2.78015
1.14175,2.77965
1.14951,2.76255
1.15728,2.74145
1.16505,2.74998
1.17282,2.72088
1.18058,2.72533
1.18835,2.70915
1.19612,2.72105
1.20388,2.68953
1.21165,2.68675
1.21942,2.67078
1.22718,2.66393
1.23495,2.66825
1.24272,2.65838
1.25049,2.6388
1.25825,2.63218
1.26602,2.61273
1.27379,2.6159
1.28155,2.60963
1.28932,2.59748
1.29709,2.59605
1.30485,2.5825
1.31262,2.59435
1.32039,2.57448
1.32816,2.5624
1.33592,2.5569
1.34369,2.54448
1.35146,2.52015
1.35922,2.53885
1.36699,2.53573
1.37476,2.50393
1.38252,2.52105
1.39029,2.50568
1.39806,2.5384
1.40583,2.51075
1.41359,2.48478
1.42136,2.50273
1.42913,2.4648
1.43689,2.5049
1.44466,2.49698
1.45243,2.49545
1.46019,2.48698
1.46796,2.4598
1.47573,2.4498
1.4835,2.46728
1.49126,2.45468
1.49903,2.445
1.5068,2.4378
1.51456,2.43668
1.52233,2.44583
1.5301,2.44433
1.53786,2.45275
1.54563,2.4348
1.5534,2.43755
1.56117,2.41518
1.56893,2.41713
1.5767,2.39548
1.58447,2.41675
1.59223,2.4066
1.6,2.37475
1.60777,2.3903
1.61553,2.39445
1.6233,2.36848
1.63107,2.34675
1.63883,2.34335
1.6466,2.32208
1.65437,2.27713
1.66214,2.27495
1.6699,2.24223
1.67767,2.2712
1.68544,2.2546
1.6932,2.24845
1.70097,2.30253
1.70874,2.30265
1.7165,2.2957
1.72427,2.2667
1.73204,2.27055
1.73981,2.25355
1.74757,2.2622
1.75534,2.26808
1.76311,2.23705
1.77087,2.2459
1.77864,2.23345
1.78641,2.2422
1.79417,2.24865
1.80194,2.23698
1.80971,2.21725
1.81748,2.20838
1.82524,2.21375
1.83301,2.21348
1.84078,2.20828
1.84854,2.20105
1.85631,2.2041
1.86408,2.2039
1.87184,2.21983
1.87961,2.17845
1.88738,2.18373
1.89515,2.18838
1.90291,2.19338
1.91068,2.16725
1.91845,2.18063
1.92621,2.18443
1.93398,2.15655
1.94175,2.19495
1.94951,2.17585
1.95728,2.162
1.96505,2.13003
1.97282,2.1799
1.98058,2.16498
1.98835,2.13483
1.99612,2.13743
2.00388,2.1411
2.01165,2.15453
2.01942,2.12998
2.02718,2.12818
2.03495,2.12063
2.04272,2.17293
2.05049,2.10105
2.05825,2.12558
2.06602,2.12945
2.07379,2.14293
2.08155,2.12033
2.08932,2.14573
2.09709,2.08048
2.10485,2.11563
2.11262,2.1017
2.12039,2.10573
2.12816,2.0712
2.13592,2.1221
2.14369,2.09708
2.15146,2.06253
2.15922,2.13573
2.16699,2.08495
2.17476,2.05845
2.18252,2.10425
2.19029,2.06835
2.19806,2.07983
2.20583,2.06238
2.21359,2.05508
2.22136,2.07248
2.22913,2.07708
2.23689,2.04885
2.24466,2.052
2.25243,2.06468
2.26019,2.0358
2.26796,2.04678
2.27573,2.05223
2.2835,1.98465
2.29126,2.0105
2.29903,2.0131
2.3068,1.97873
2.31456,2.00543
2.32233,2.01563
2.3301,1.98155
2.33786,1.992
2.34563,1.96908
2.3534,1.9832
2.36117,1.97955
2.36893,1.97358
2.3767,1.99093
2.38447,1.94253
2.39223,1.93445
2.4,1.9465
2.40777,1.93105
2.41553,1.98935
2.4233,1.95825
2.43107,1.92828
2.43883,1.9328
2.4466,1.87845
2.45437,1.90893
2.46214,1.9466
2.4699,1.90415
2.47767,1.88785
2.48544,1.9366
2.4932,1.95698
2.50097,1.93538
2.50874,1.92895
2.5165,1.96083
2.52427,1.89873
2.53204,1.89265
2.53981,1.86035
2.54757,1.89218
2.55534,1.92738
2.56311,1.88193
2.57087,1.92245
2.57864,1.87383
2.58641,1.87053
2.59417,1.86215
2.60194,1.90448
2.60971,1.8348
2.61748,1.8523
2.62524,1.85558
2.63301,1.83448
2.64078,1.8374
2.64854,1.79843
2.65631,1.78813
2.66408,1.8424
2.67184,1.82133
2.67961,1.80905
2.68738,1.76778
2.69515,1.73865
2.70291,1.71523
2.71068,1.76978
2.71845,1.80308
2.72621,1.83873
2.73398,1.79758
2.74175,1.82753
2.74951,1.80815
2.75728,1.79585
2.76505,1.84623
2.77282,1.74815
2.78058,1.7578
2.78835,1.82058
2.79612,1.737
2.80388,1.744
2.81165,1.79095
2.81942,1.80895
2.82718,1.79408
2.83495,1.7651
2.84272,1.79433
2.85049,1.75155
2.85825,1.7566
2.86602,1.78163
2.87379,1.80293
2.88155,1.75883
2.88932,1.77425
2.89709,1.7555
2.90485,1.82555
2.91262,1.7694
2.92039,1.80558
2.92816,1.78245
2.93592,1.7786
2.94369,1.79445
2.95146,1.80913
2.95922,1.81915
2.96699,1.8108
2.97476,1.762
2.98252,1.79053
2.99029,1.84635
2.99806,1.80888
3.00583,1.8629
3.01359,1.8297
3.02136,1.84795
3.02913,1.84965
3.03689,1.86705
3.04466,1.89388
3.05243,1.88373
3.06019,1.9302
3.06796,1.90588
3.07573,1.8779
3.0835,1.9033
3.09126,1.913
3.09903,1.9378
3.1068,1.95663
3.11456,1.91495
3.12233,1.94508
3.1301,1.98418
3.13786,1.96728
3.14563,1.99498
3.1534,2.00618
3.16117,1.98048
3.16893,1.98848
3.1767,2.01895
3.18447,2.0125
3.19223,2.05735
3.2,2.07658
3.20777,2.07223
3.21553,2.06445
3.2233,2.07465
3.23107,2.07033
3.23883,2.10178
3.2466,2.09683
3.25437,2.13015
3.26214,2.10588
3.2699,2.12115
3.27767,2.1362
3.28544,2.09983
3.2932,2.146
3.30097,2.13323
3.30874,2.18745
3.3165,2.20933
3.32427,2.20078
3.33204,2.21925
3.33981,2.23475
3.34757,2.25165
3.35534,2.2574
3.36311,2.2454
3.37087,2.28748
3.37864,2.27813
3.38641,2.34693
3.39417,2.3026
3.40194,2.31113
3.40971,2.32853
3.41748,2.37148
3.42524,2.3698
3.43301,2.38598
3.44078,2.36438
3.44854,2.41975
3.45631,2.40853
3.46408,2.4349
3.47184,2.41683
3.47961,2.46525
3.48738,2.47418
3.49515,2.48948
3.50291,2.48388
3.51068,2.49348
3.51845,2.48918
3.52621,2.54363
3.53398,2.51315
3.54175,2.51528
3.54951,2.53428
3.55728,2.5524
3.56505,2.5358
3.57282,2.5705
3.58058,2.56335
3.58835,2.56373
3.59612,2.5633
3.60388,2.5432
3.61165,2.50923
3.61942,2.52715
3.62718,2.51643
3.63495,2.51528
3.64272,2.49955
3.65049,2.52893
3.65825,2.60495
3.66602,2.6064
3.67379,2.58308
3.68155,2.58373
3.68932,2.58
3.69709,2.57055
3.70485,2.55458
3.71262,2.56405
3.72039,2.5628
3.72816,2.55953
3.73592,2.54093
3.74369,2.5559
3.75146,2.53345
3.75922,2.53478
3.76699,2.53983
3.77476,2.54115
3.78252,2.50853
3.79029,2.48188
3.79806,2.48403
3.80583,2.49403
3.81359,2.44468
3.82136,2.462
3.82913,2.45393
3.83689,2.45693
3.84466,2.4115
3.85243,2.39645
3.86019,2.38315
3.86796,2.38825
3.87573,2.3796
3.8835,2.36588
3.89126,2.35903
3.89903,2.35498
3.9068,2.34385
3.91456,2.32048
3.92233,2.3154
3.9301,2.3134
3.93786,2.29655
3.94563,2.27905
3.9534,2.2425
3.96117,2.27615
3.96893,2.25865
3.9767,2.22538
3.98447,2.23858
3.99223,2.24035
4,2.17373
4.00777,2.19248
4.01553,2.23135
4.0233,2.21975
4.03107,2.184
4.03883,2.13648
4.0466,2.15855
4.05437,2.1612
4.06214,2.15908
4.0699,2.15695
4.07767,2.13375
4.08544,2.15138
4.0932,2.12875
4.10097,2.14325
4.10874,2.12713
4.1165,2.1307
4.12427,2.1342
4.13204,2.1497
4.13981,2.14053
4.14757,2.12945
4.15534,2.12023
4.16311,2.16838
4.17087,2.18073
4.17864,2.15865
4.18641,2.2067
4.19417,2.1683
4.20194,2.19205
4.20971,2.17868
4.21748,2.23605
4.22524,2.22463
4.23301,2.22893
4.24078,2.2391
4.24854,2.23338
4.25631,2.24178
4.26408,2.2454
4.27184,2.29053
4.27961,2.30478
4.28738,2.27783
4.29515,2.30788
4.30291,2.28148
4.31068,2.3084
4.31845,2.32613
4.32621,2.35203
4.33398,2.34003
4.34175,2.3427
4.34951,2.3672
4.35728,2.38788
4.36505,2.39873
4.37282,2.35468
4.38058,2.39673
4.38835,2.41293
4.39612,2.4094
4.40388,2.42033
4.41165,2.39953
4.41942,2.42518
4.42718,2.43105
4.43495,2.4338
4.44272,2.43965
4.45049,2.42078
4.45825,2.43545
4.46602,2.42638
4.47379,2.40883
4.48155,2.44943
4.48932,2.42298
4.49709,2.4329
4.50485,2.42223
4.51262,2.38423
4.52039,2.41568
4.52816,2.42368
4.53592,2.38513
4.54369,2.40748
4.55146,2.41568
4.55922,2.40515
4.56699,2.3882
4.57476,2.37418
4.58252,2.34465
4.59029,2.31738
4.59806,2.30068
4.60583,2.31945
4.61359,2.29258
4.62136,2.26855
4.62913,2.27223
4.63689,2.2718
4.64466,2.31183
4.65243,2.28775
4.66019,2.28185
4.66796,2.27343
4.67573,2.2951
4.6835,2.26813
4.69126,2.25203
4.69903,2.22143
4.7068,2.23368
4.71456,2.20885
4.72233,2.22423
4.7301,2.2226
4.73786,2.18275
4.74563,2.17333
4.7534,2.16303
4.76117,2.14858
4.76893,2.13728
4.7767,2.1044
4.78447,2.109
4.79223,2.09963
4.8,2.07148
4.80777,2.03463
4.81553,2.08103
4.8233,2.068
4.83107,2.0463
4.83883,2.07923
4.8466,2.0603
4.85437,2.04238
4.86214,2.06193
4.8699,2.03085
4.87767,2.0237
4.88544,2.04948
4.8932,1.97653
4.90097,2.0669
4.90874,1.99793
4.9165,1.9931
4.92427,1.984
4.93204,1.96183
4.93981,1.9611
4.94757,1.92915
4.95534,1.97313
4.96311,1.96173
4.97087,1.89923
4.97864,1.9805
4.98641,1.92683
4.99417,1.92893
5.00194,1.8436
5.00971,1.90725
5.01748,1.92338
5.02524,1.87325
5.03301,1.926
5.04078,1.87153
5.04854,1.90175
5.05631,1.87418
5.06408,1.885
5.07184,1.85968
5.07961,1.89813
5.08738,1.86755
5.09515,1.85405
5.10291,1.83933
5.11068,1.85433
5.11845,1.8384
5.12621,1.84493
5.13398,1.82468
5.14175,1.85915
5.14951,1.849
5.15728,1.86238
5.16505,1.8356
5.17282,1.80075
5.18058,1.88993
5.18835,1.90058
5.19612,1.82888
5.20388,1.81188
5.21165,1.84615
5.21942,1.806
5.22718,1.85045
5.23495,1.8537
5.24272,1.83858
5.25049,1.84248
5.25825,1.82218
5.26602,1.8282
5.27379,1.82118
5.28155,1.84003
5.28932,1.87393
5.29709,1.8849
5.30485,1.79543
5.31262,1.88473
5.32039,1.82953
5.32816,1.89635
5.33592,1.79003
5.34369,1.90438
5.35146,1.857
5.35922,1.89378
5.36699,1.82153
5.37476,1.88183
5.38252,1.91913
5.39029,1.90105
5.39806,1.92045
5.40583,1.86233
5.41359,1.88388
5.42136,1.8736
5.42913,1.84623
5.43689,1.86633
5.44466,1.8827
5.45243,1.86813
5.46019,1.92505
5.46796,1.8817
5.47573,1.8853
5.4835,1.90028
5.49126,1.87913
5.49903,1.95933
5.5068,1.88903
5.51456,1.90895
5.52233,1.93403
5.5301,1.91808
5.53786,1.9603
5.54563,1.9239
5.5534,1.95698
5.56117,1.9667
5.56893,1.96248
5.5767,1.96065
5.58447,1.95395
5.59223,1.96335
5.6,1.95245
5.60777,1.9566
5.61553,1.97638
5.6233,2.00965
5.63107,1.99665
5.63883,2.0123
5.6466,2.04063
5.65437,2.04868
5.66214,2.0561
5.6699,2.0109
5.67767,2.04798
5.68544,2.01928
5.6932,2.0061
5.70097,1.96725
5.70874,2.03915
5.7165,2.05815
5.72427,2.1189
5.73204,2.08913
5.73981,2.10245
5.74757,2.14905
5.75534,2.10493
5.76311,2.1609
5.77087,2.1566
5.77864,2.14133
5.78641,2.17018
5.79417,2.1712
5.80194,2.17845
5.80971,2.20888
5.81748,2.20173
5.82524,2.18888
5.83301,2.213
5.84078,2.24625
5.84854,2.22333
5.85631,2.27345
5.86408,2.27385
5.87184,2.26873
5.87961,2.30823
5.88738,2.31915
5.89515,2.2934
5.90291,2.32158
5.91068,2.32378
5.91845,2.37028
5.92621,2.35365
5.93398,2.38358
5.94175,2.39413
5.94951,2.40398
5.95728,2.40633
5.96505,2.4347
5.97282,2.43955
5.98058,2.46615
5.98835,2.47623
5.99612,2.48628
6.00388,2.47033
6.01165,2.52253
6.01942,2.51035
6.02718,2.50968
6.03495,2.56763
6.04272,2.55865
6.05049,2.5687
6.05825,2.56533
6.06602,2.62443
6.07379,2.59785
6.08155,2.6303
6.08932,2.63173
6.09709,2.66225
6.10485,2.64758
6.11262,2.67343
6.12039,2.67615
6.12816,2.7037
6.13592,2.7201
6.14369,2.72298
6.15146,2.72438
6.15922,2.72183
6.16699,2.75945
6.17476,2.76973
6.18252,2.77958
6.19029,2.7893
6.19806,2.78565
6.20583,2.7922
6.21359,2.82148
6.22136,2.81635
6.22913,2.8403
6.23689,2.82938
6.24466,2.8487
6.25243,2.8577
6.26019,2.84758
6.26796,2.862
6.27573,2.86435
6.2835,2.8799
6.29126,2.8949
6.29903,2.88958
6.3068,2.8926
6.31456,2.8825
6.32233,2.91035
6.3301,2.891
6.33786,2.90948
6.34563,2.92185
6.3534,2.91268
6.36117,2.89895
6.36893,2.93228
6.3767,2.91623
6.38447,2.91363
6.39223,2.91693
6.4,2.91738
6.40777,2.91593
6.41553,2.92655
6.4233,2.92268
6.43107,2.90335
6.43883,2.90705
6.4466,2.90508
6.45437,2.90425
6.46214,2.89168
6.4699,2.9085
6.47767,2.9099
6.48544,2.89473
6.4932,2.88865
6.50097,2.8799
6.50874,2.89035
6.5165,2.89333
6.52427,2.8918
6.53204,2.88895
6.53981,2.87913
6.54757,2.87683
6.55534,2.86935
6.56311,2.87853
6.57087,2.87163
6.57864,2.86905
6.58641,2.8612
6.59417,2.8488
6.60194,2.8442
6.60971,2.79663
6.61748,2.8064
6.62524,2.8105
6.63301,2.7722
6.64078,2.78763
6.64854,2.8198
6.65631,2.85533
6.66408,2.85443
6.67184,2.84643
6.67961,2.8503
6.68738,2.86003
6.69515,2.85298
6.70291,2.85673
6.71068,2.85588
6.71845,2.84703
6.72621,2.8669
6.73398,2.8652
6.74175,2.87233
6.74951,2.86873
6.75728,2.8621
6.76505,2.87195
6.77282,2.85453
6.78058,2.87325
6.78835,2.86293
6.79612,2.8786
6.80388,2.88283
6.81165,2.88173
6.81942,2.869
6.82718,2.88263
6.83495,2.87638
6.84272,2.87503
6.85049,2.8834
6.85825,2.87008
6.86602,2.89515
6.87379,2.88465
6.88155,2.87868
6.88932,2.87005
6.89709,2.86855
6.90485,2.88298
6.91262,2.8763
6.92039,2.87053
6.92816,2.87155
6.93592,2.8748
6.94369,2.8556
6.95146,2.8549
6.95922,2.86353
6.96699,2.84848
6.97476,2.8432
6.98252,2.84485
6.99029,2.83035
6.99806,2.82178
7.00583,2.80818
7.01359,2.80278
7.02136,2.78048
7.02913,2.7884
7.03689,2.79113
7.04466,2.7583
7.05243,2.7507
7.06019,2.75588
7.06796,2.72993
7.07573,2.728
7.0835,2.7184
7.09126,2.71775
7.09903,2.69753
7.1068,2.67795
7.11456,2.66405
7.12233,2.67088
7.1301,2.64523
7.13786,2.64333
7.14563,2.6048
7.1534,2.59628
7.16117,2.58808
7.16893,2.57748
7.1767,2.55983
7.18447,2.52135
7.19223,2.51998
7.2,2.52375
7.20777,2.51315
7.21553,2.47583
7.2233,2.48063
7.23107,2.44378
7.23883,2.41888
7.2466,2.3866
7.25437,2.39303
7.26214,2.38345
7.2699,2.3441
7.27767,2.35095
7.28544,2.31653
7.2932,2.3349
7.30097,2.31183
7.30874,2.29973
7.3165,2.27785
7.32427,2.2669
7.33204,2.24393
7.33981,2.2657
7.34757,2.2135
7.35534,2.20018
7.36311,2.19885
7.37087,2.19565
7.37864,2.17483
7.38641,2.1594
7.39417,2.1589
7.40194,2.15053
7.40971,2.12415
7.41748,2.11185
7.42524,2.10468
7.43301,2.11503
7.44078,2.11505
7.44854,2.14415
7.45631,2.03948
7.46408,2.07868
7.47184,2.0662
7.47961,2.0996
7.48738,2.03655
7.49515,2.12213
7.50291,2.05785
7.51068,2.062
7.51845,2.05945
7.52621,2.02163
7.53398,2.02393
7.54175,2.0402
7.54951,2.01375
7.55728,2.02888
7.56505,2.0262
7.57282,2.00073
7.58058,1.97368
7.58835,1.97615
7.59612,1.93973
7.60388,1.9297
7.61165,1.8989
7.61942,1.92383
7.62718,1.91805
7.63495,1.9764
7.64272,1.98708
7.65049,1.9839
7.65825,1.9397
7.66602,1.98215
7.67379,1.91608
7.68155,1.97625
7.68932,1.87665
7.69709,1.89535
7.70485,1.91933
7.71262,1.93648
7.72039,1.89375
7.72816,1.9382
7.73592,1.9218
7.74369,1.831
7.75146,1.87358
7.75922,1.88308
7.76699,1.82988
7.77476,1.83453
7.78252,1.8359
7.79029,1.83955
7.79806,1.85403
7.80583,1.76183
7.81359,1.7771
7.82136,1.78515
7.82913,1.7632
7.83689,1.711
7.84466,1.78185
7.85243,1.65853
7.86019,1.72433
7.86796,1.71363
7.87573,1.74515
7.8835,1.68935
7.89126,1.63593
7.89903,1.67295
7.9068,1.64338
7.91456,1.53715
7.92233,1.6094
7.9301,1.5814
7.93786,1.55045
7.94563,1.6204
7.9534,1.57568
7.96117,1.49738
7.96893,1.51358
7.9767,1.51288
7.98447,1.4669
7.99223,1.48985
8,1.51253
8.00777,1.4256
8.01553,1.46885
8.0233,1.39498
8.03107,1.4884
8.03883,1.42898
8.0466,1.46323
8.05437,1.37715
8.06214,1.35545
8.0699,1.36585
8.07767,1.40805
8.08544,1.3896
8.0932,1.30325
8.10097,1.31418
8.10874,1.32943
8.1165,1.33373
8.12427,1.31468
8.13204,1.2738
8.13981,1.36495
8.14757,1.22443
8.15534,1.32405
8.16311,1.28583
8.17087,1.22663
8.17864,1.25495
8.18641,1.23845
8.19417,1.23698
8.20194,1.18813
8.20971,1.33713
8.21748,1.22675
8.22524,1.31195
8.23301,1.2453
8.24078,1.21718
8.24854,1.2481
8.25631,1.18623
8.26408,1.24838
8.27184,1.17
8.27961,1.20368
8.28738,1.2196
8.29515,1.2418
8.30291,1.0923
8.31068,1.1828
8.31845,1.1681
8.32621,1.27283
8.33398,1.11483
8.34175,1.2658
8.34951,1.2344
8.35728,1.1901
8.36505,1.253
8.37282,1.23893
8.38058,1.15795
8.38835,1.22178
8.39612,1.21874
8.40388,1.15965
8.41165,1.2332
8.41942,1.14668
8.42718,1.21228
8.43495,1.08985
8.44272,1.16173
8.45049,1.24313
8.45825,1.20408
8.46602,1.17895
8.47379,1.23873
8.48155,1.1042
8.48932,1.2564
8.49709,1.2152
8.50485,1.25008
8.51262,1.17873
8.52039,1.10265
8.52816,1.1499
8.53592,1.05827
8.54369,1.1555
8.55146,1.20505
8.55922,1.24503
8.56699,1.18065
8.57476,1.16318
8.58252,1.12078
8.59029,1.22515
8.59806,1.25845
8.60583,1.22765
8.61359,1.18735
8.62136,1.12078
8.62913,1.06057
8.63689,1.10929
8.64466,1.10459
8.65243,1.10229
8.66019,1.11312
8.66796,1.2257
8.67573,1.21263
8.6835,1.13493
8.69126,1.03015
8.69903,1.22269
8.7068,1.21598
8.71456,1.23105
8.72233,1.13108
8.7301,1.17285
8.73786,1.11708
8.74563,1.2075
8.7534,1.15033
8.76117,1.2484
8.76893,1.14744
8.7767,1.1697
8.78447,1.2353
8.79223,1.21025
8.8,1.14025
8.80777,1.09837
8.81553,1.0993
8.8233,1.07843
8.83107,1.17418
8.83883,1.11209
8.8466,1.15045
8.85437,1.11118
8.86214,1.04688
8.8699,1.11043
8.87767,1.00205
8.88544,1.07562
8.8932,1.11575
8.90097,1.00591
8.90874,1.11623
8.9165,1.22143
8.92427,1.08362
8.93204,1.13633
8.93981,1.06163
8.94757,1.0146
8.95534,1.06391
8.96311,1.14555
8.97087,1.08285
8.97864,1.16348
8.98641,1.01148
8.99417,1.05102
9.00194,1.17716
9.00971,0.98392
9.01748,1.0773
9.02524,1.03377
9.03301,0.97577
9.04078,1.1877
9.04854,1.02066
9.05631,0.95102
9.06408,1.00393
9.07184,1.00086
9.07961,1.00836
9.08738,1.11575
9.09515,0.94879
9.10291,1.08576
9.11068,1.05438
9.11845,1.06161
9.12621,1.02989
9.13398,0.99671
9.14175,0.95197
9.14951,0.9329
9.15728,1.13373
9.16505,1.09926
9.17282,0.94764
9.18058,1.03684
9.18835,0.90887
9.19612,1.02816
9.20388,0.86938
9.21165,0.92561
9.21942,1.04489
9.22718,1.0871
9.23495,1.07336
9.24272,0.97269
9.25049,1.10735
9.25825,0.94541
9.26602,0.89943
9.27379,1.0199
9.28155,1.06106
9.28932,0.97083
9.29709,0.92867
9.30485,0.97492
9.31262,1.05017
9.32039,1.08934
9.32816,1.05358
9.33592,0.86179
9.34369,0.82173
9.35146,0.95775
9.35922,1.07083
9.36699,0.93004
9.37476,0.98636
9.38252,0.96964
9.39029,1.00616
9.39806,1.04795
9.40583,1.03803
9.41359,1.09592
9.42136,0.97468
9.42913,0.93735
9.43689,0.934
9.44466,1.03015
9.45243,0.96963
9.46019,1.06469
9.46796,0.97468
9.47573,0.97886
9.4835,1.1121
9.49126,1.04608
9.49903,1.14723
9.5068,1.06562
9.51456,1.03789
9.52233,1.05863
9.5301,0.9413
9.53786,0.9309
9.54563,1.04828
9.5534,1.04383
9.56117,1.02922
9.56893,1.033
9.5767,1.04212
9.58447,1.03958
9.59223,0.86408
9.6,0.96157
9.60777,1.01759
9.61553,0.86178
9.6233,0.87015
9.63107,0.87015
9.63883,1.00592
9.6466,1.0056
9.65437,1.01979
9.66214,1.19113
9.6699,1.06383
9.67767,1.05356
9.68544,0.98974
9.6932,1.08585
9.70097,0.94984
9.70874,1.15745
9.7165,0.93429
9.72427,0.99647
9.73204,1.06667
9.73981,0.99448
