KEV,INTENSITY
0.39068,4.61425
0.39834,4.5736
0.406,4.53373
0.41366,4.4952
0.42132,4.4514
0.42898,4.41305
0.43664,4.37043
0.4443,4.3315
0.45196,4.2921
0.45962,4.25518
0.46728,4.21543
0.47494,4.17688
0.48261,4.13608
0.49027,4.09995
0.49793,4.05815
0.50559,4.02478
0.51325,3.9867
0.52091,3.95408
0.52857,3.9148
0.53623,3.87665
0.54389,3.84405
0.55155,3.80825
0.55921,3.7755
0.56687,3.7415
0.57453,3.70928
0.58219,3.67945
0.58985,3.64685
0.59751,3.6203
0.60517,3.5858
0.61283,3.55503
0.62049,3.53525
0.62815,3.5051
0.63581,3.48508
0.64347,3.4543
0.65113,3.43143
0.65879,3.4105
0.66645,3.381
0.67412,3.37138
0.68178,3.34158
0.68944,3.32088
0.6971,3.29783
0.70476,3.27883
0.71242,3.25533
0.72008,3.23093
0.72774,3.21775
0.7354,3.19103
0.74306,3.17155
0.75072,3.14485
0.75838,3.13353
0.76604,3.1154
0.7737,3.09805
0.78136,3.06915
0.78902,3.04243
0.79668,3.03755
0.80434,3.01328
0.812,2.9892
0.81966,2.99313
0.82732,2.94703
0.83498,2.94383
0.84264,2.93138
0.8503,2.9127
0.85796,2.89778
0.86563,2.8822
0.87329,2.88003
0.88095,2.86543
0.88861,2.84415
0.89627,2.8562
0.90393,2.83028
0.91159,2.82648
0.91925,2.81253
0.92691,2.78883
0.93457,2.79393
0.94223,2.7588
0.94989,2.75225
0.95755,2.75513
0.96521,2.73963
0.97287,2.7312
0.98053,2.72778
0.98819,2.71848
0.99585,2.7202
1.00351,2.7058
1.01117,2.69485
1.01883,2.67915
1.02649,2.66985
1.03415,2.6653
1.04181,2.66028
1.04947,2.64405
1.05713,2.65843
1.0648,2.6392
1.07246,2.6445
1.08012,2.63318
1.08778,2.61663
1.09544,2.61218
1.1031,2.61045
1.11076,2.59495
1.11842,2.60303
1.12608,2.58693
1.13374,2.5747
1.1414,2.56263
1.14906,2.54995
1.15672,2.54305
1.16438,2.52373
1.17204,2.54675
1.1797,2.5346
1.18736,2.4978
1.19502,2.4957
1.20268,2.5069
1.21034,2.48653
1.218,2.4877
1.22566,2.48765
1.23332,2.49533
1.24098,2.45078
1.24864,2.45208
1.25631,2.4602
1.26397,2.44505
1.27163,2.4528
1.27929,2.42013
1.28695,2.42858
1.29461,2.44735
1.30227,2.44368
1.30993,2.4286
1.31759,2.418
1.32525,2.41798
1.33291,2.41028
1.34057,2.41358
1.34823,2.41115
1.35589,2.4057
1.36355,2.40745
1.37121,2.38765
1.37887,2.4039
1.38653,2.40173
1.39419,2.39385
1.40185,2.42375
1.40951,2.41108
1.41717,2.40433
1.42483,2.37848
1.43249,2.34983
1.44015,2.3992
1.44782,2.38418
1.45548,2.38805
1.46314,2.37663
1.4708,2.38353
1.47846,2.36488
1.48612,2.38348
1.49378,2.3741
1.50144,2.35118
1.5091,2.36385
1.51676,2.35108
1.52442,2.3557
1.53208,2.3489
1.53974,2.3519
1.5474,2.36965
1.55506,2.34133
1.56272,2.33715
1.57038,2.3432
1.57804,2.32495
1.5857,2.32233
1.59336,2.29698
1.60102,2.32058
1.60868,2.34095
1.61634,2.30468
1.624,2.30548
1.63166,2.33453
1.63933,2.3002
1.64699,2.29545
1.65465,2.27795
1.66231,2.28743
1.66997,2.28885
1.67763,2.2767
1.68529,2.25798
1.69295,2.24875
1.70061,2.2583
1.70827,2.27533
1.71593,2.25863
1.72359,2.25085
1.73125,2.2437
1.73891,2.2618
1.74657,2.24128
1.75423,2.24343
1.76189,2.26133
1.76955,2.2396
1.77721,2.22475
1.78487,2.22505
1.79253,2.2159
1.80019,2.1852
1.80785,2.18495
1.81551,2.20783
1.82317,2.17503
1.83084,2.202
1.8385,2.184
1.84616,2.18425
1.85382,2.16403
1.86148,2.13183
1.86914,2.15435
1.8768,2.14348
1.88446,2.13638
1.89212,2.13498
1.89978,2.10725
1.90744,2.1129
1.9151,2.1103
1.92276,2.0778
1.93042,2.08225
1.93808,2.06738
1.94574,2.04028
1.9534,2.05835
1.96106,2.06213
1.96872,2.0341
1.97638,2.03795
1.98404,2.03535
1.9917,2.02328
1.99936,2.0024
2.00702,2.02003
2.01468,1.95353
2.02235,1.99968
2.03001,1.95638
2.03767,1.97958
2.04533,1.94618
2.05299,1.9481
2.06065,1.94745
2.06831,1.88935
2.07597,1.91228
2.08363,1.90525
2.09129,1.91633
2.09895,1.84113
2.10661,1.85385
2.11427,1.85675
2.12193,1.84848
2.12959,1.82965
2.13725,1.86368
2.14491,1.8301
2.15257,1.83853
2.16023,1.86273
2.16789,1.7587
2.17555,1.81748
2.18321,1.76298
2.19087,1.82785
2.19853,1.80455
2.20619,1.74793
2.21386,1.77593
2.22152,1.75203
2.22918,1.7567
2.23684,1.79233
2.2445,1.7376
2.25216,1.76875
2.25982,1.7587
2.26748,1.69995
2.27514,1.7647
2.2828,1.68048
2.29046,1.70983
2.29812,1.68283
2.30578,1.73593
2.31344,1.68323
2.3211,1.71298
2.32876,1.73943
2.33642,1.78445
2.34408,1.70078
2.35174,1.72033
2.3594,1.7497
2.36706,1.67275
2.37472,1.73175
2.38238,1.67953
2.39004,1.66625
2.3977,1.67498
2.40537,1.67158
2.41303,1.70828
2.42069,1.70525
2.42835,1.655
2.43601,1.62245
2.44367,1.67595
2.45133,1.66278
2.45899,1.62995
2.46665,1.63068
2.47431,1.63735
2.48197,1.65643
2.48963,1.64905
2.49729,1.62525
2.50495,1.60795
2.51261,1.61018
2.52027,1.60443
2.52793,1.61105
2.53559,1.66888
2.54325,1.65158
2.55091,1.64628
2.55857,1.58348
2.56623,1.69105
2.57389,1.68108
2.58155,1.67153
2.58921,1.65828
2.59688,1.67798
2.60454,1.631
2.6122,1.63993
2.61986,1.6769
2.62752,1.7005
2.63518,1.66753
2.64284,1.67593
2.6505,1.70338
2.65816,1.66493
2.66582,1.65795
2.67348,1.63558
2.68114,1.65158
2.6888,1.66483
2.69646,1.6697
2.70412,1.7302
2.71178,1.65755
2.71944,1.6503
2.7271,1.62295
2.73476,1.65303
2.74242,1.67318
2.75008,1.67795
2.75774,1.6666
2.7654,1.64093
2.77306,1.62718
2.78072,1.63895
2.78838,1.68323
2.79605,1.5637
2.80371,1.62903
2.81137,1.69638
2.81903,1.61925
2.82669,1.64308
2.83435,1.6289
2.84201,1.64935
2.84967,1.65203
2.85733,1.57355
2.86499,1.64698
2.87265,1.57538
2.88031,1.66283
2.88797,1.6821
2.89563,1.63193
2.90329,1.5936
2.91095,1.6823
2.91861,1.67935
2.92627,1.61095
2.93393,1.59205
2.94159,1.62405
2.94925,1.58075
2.95691,1.59988
2.96457,1.7124
2.97223,1.63153
2.97989,1.69118
2.98756,1.64483
2.99522,1.6754
3.00288,1.6766
3.01054,1.73845
3.0182,1.67768
3.02586,1.71805
3.03352,1.79773
3.04118,1.76788
3.04884,1.79128
3.0565,1.76353
3.06416,1.8534
3.07182,1.82265
3.07948,1.76403
3.08714,1.80798
3.0948,1.83628
3.10246,1.84958
3.11012,1.87993
3.11778,1.90345
3.12544,1.91155
3.1331,1.90783
3.14076,1.95548
3.14842,1.95543
3.15608,1.96403
3.16374,2.01215
3.1714,1.92933
3.17907,2.03253
3.18673,1.98218
3.19439,2.02228
3.20205,2.02708
3.20971,2.05863
3.21737,2.08895
3.22503,2.10378
3.23269,2.0537
3.24035,2.09453
3.24801,2.1328
3.25567,2.1141
3.26333,2.15273
3.27099,2.14603
3.27865,2.14643
3.28631,2.14975
3.29397,2.18203
3.30163,2.16595
3.30929,2.15615
3.31695,2.18075
3.32461,2.15465
3.33227,2.17095
3.33993,2.17215
3.34759,2.19228
3.35525,2.22818
3.36291,2.21078
3.37058,2.20268
3.37824,2.2312
3.3859,2.24325
3.39356,2.20553
3.40122,2.2296
3.40888,2.25765
3.41654,2.29368
3.4242,2.26253
3.43186,2.24763
3.43952,2.28085
3.44718,2.30345
3.45484,2.2994
3.4625,2.31518
3.47016,2.32553
3.47782,2.34625
3.48548,2.3301
3.49314,2.35323
3.5008,2.40065
3.50846,2.4197
3.51612,2.41518
3.52378,2.42373
3.53144,2.3964
3.5391,2.43433
3.54676,2.43613
3.55442,2.443
3.56209,2.47713
3.56975,2.47285
3.57741,2.48793
3.58507,2.48805
3.59273,2.52695
3.60039,2.52013
3.60805,2.52403
3.61571,2.53283
3.62337,2.53983
3.63103,2.52978
3.63869,2.52995
3.64635,2.53753
3.65401,2.55053
3.66167,2.56635
3.66933,2.55075
3.67699,2.52885
3.68465,2.53755
3.69231,2.54448
3.69997,2.54183
3.70763,2.53833
3.71529,2.5375
3.72295,2.53525
3.73061,2.51425
3.73827,2.50108
3.74593,2.4954
3.7536,2.48173
3.76126,2.49058
3.76892,2.49093
3.77658,2.49385
3.78424,2.45548
3.7919,2.46925
3.79956,2.4522
3.80722,2.43093
3.81488,2.44298
3.82254,2.44215
3.8302,2.4037
3.83786,2.3971
3.84552,2.37775
3.85318,2.35293
3.86084,2.34813
3.8685,2.33708
3.87616,2.34528
3.88382,2.3058
3.89148,2.31908
3.89914,2.29978
3.9068,2.26095
3.91446,2.25
3.92212,2.24098
3.92978,2.24605
3.93744,2.17943
3.94511,2.2328
3.95277,2.19135
3.96043,2.15525
3.96809,2.14253
3.97575,2.13845
3.98341,2.13493
3.99107,2.11258
3.99873,2.09523
4.00639,2.13383
4.01405,2.07388
4.02171,2.12453
4.02937,2.05543
4.03703,2.06813
4.04469,2.04008
4.05235,2.0482
4.06001,2.01753
4.06767,2.0256
4.07533,2.02558
4.08299,1.9872
4.09065,2.0043
4.09831,1.9902
4.10597,1.99638
4.11363,1.94358
4.12129,1.99883
4.12895,1.96085
4.13662,1.95193
4.14428,1.92913
4.15194,1.9726
4.1596,1.90995
4.16726,1.92305
4.17492,1.92648
4.18258,1.93385
4.19024,1.9119
4.1979,1.9179
4.20556,1.93113
4.21322,1.92143
4.22088,1.94815
4.22854,1.89783
4.2362,1.93193
4.24386,1.95658
4.25152,1.92835
4.25918,1.95358
4.26684,1.9612
4.2745,1.95605
4.28216,1.98688
4.28982,1.99688
4.29748,2.00715
4.30514,2.00175
4.3128,1.97355
4.32046,2.06833
4.32813,2.042
4.33579,2.0712
4.34345,2.01265
4.35111,2.097
4.35877,2.11073
4.36643,2.1005
4.37409,2.12005
4.38175,2.10628
4.38941,2.17153
4.39707,2.14275
4.40473,2.1396
4.41239,2.15953
4.42005,2.17945
4.42771,2.21108
4.43537,2.22678
4.44303,2.21003
4.45069,2.17835
4.45835,2.1745
4.46601,2.22218
4.47367,2.22868
4.48133,2.20308
4.48899,2.21438
4.49665,2.22928
4.50431,2.19795
4.51197,2.24643
4.51963,2.2043
4.5273,2.19923
4.53496,2.23098
4.54262,2.19433
4.55028,2.19093
4.55794,2.19775
4.5656,2.1888
4.57326,2.16753
4.58092,2.15083
4.58858,2.15955
4.59624,2.16363
4.6039,2.13833
4.61156,2.1363
4.61922,2.0965
4.62688,2.13295
4.63454,2.10823
4.6422,2.07238
4.64986,2.04333
4.65752,2.06383
4.66518,2.06885
4.67284,2.0638
4.6805,2.0649
4.68816,2.05093
4.69582,1.9842
4.70348,2.0121
4.71114,2.0017
4.71881,1.98473
4.72647,1.9817
4.73413,1.98123
4.74179,1.97918
4.74945,1.93538
4.75711,1.94563
4.76477,1.8774
4.77243,1.92198
4.78009,1.8651
4.78775,1.85925
4.79541,1.85955
4.80307,1.8677
4.81073,1.8677
4.81839,1.83133
4.82605,1.88363
4.83371,1.84523
4.84137,1.81313
4.84903,1.851
4.85669,1.80323
4.86435,1.8424
4.87201,1.7997
4.87967,1.77555
4.88733,1.81365
4.89499,1.83858
4.90265,1.83355
4.91032,1.76468
4.91798,1.7707
4.92564,1.81325
4.9333,1.79918
4.94096,1.82558
4.94862,1.79545
4.95628,1.78838
4.96394,1.7733
4.9716,1.77898
4.97926,1.73575
4.98692,1.81393
4.99458,1.7925
5.00224,1.7847
5.0099,1.79383
5.01756,1.78383
5.02522,1.73775
5.03288,1.81215
5.04054,1.76993
5.0482,1.78213
5.05586,1.7668
5.06352,1.78283
5.07118,1.77968
5.07884,1.75918
5.0865,1.79938
5.09416,1.7594
5.10183,1.76778
5.10949,1.75343
5.11715,1.74085
5.12481,1.78458
5.13247,1.80843
5.14013,1.805
5.14779,1.80715
5.15545,1.80208
5.16311,1.7799
5.17077,1.77525
5.17843,1.83888
5.18609,1.82405
5.19375,1.8665
5.20141,1.86318
5.20907,1.84623
5.21673,1.87985
5.22439,1.9251
5.23205,1.85793
5.23971,1.87385
5.24737,1.86673
5.25503,1.86773
5.26269,1.93533
5.27035,1.88125
5.27801,1.89968
5.28567,1.93853
5.29334,1.9809
5.301,1.95523
5.30866,1.9085
5.31632,1.95583
5.32398,1.9655
5.33164,1.98898
5.3393,1.97483
5.34696,1.97095
5.35462,1.95473
5.36228,1.95413
5.36994,2.01808
5.3776,1.9712
5.38526,1.99848
5.39292,2.03403
5.40058,1.98013
5.40824,2.00763
5.4159,2.03615
5.42356,2.01725
5.43122,2.01508
5.43888,1.9649
5.44654,2.0019
5.4542,1.9856
5.46186,2.00485
5.46952,2.03823
5.47718,2.02615
5.48485,1.9955
5.49251,2.03898
5.50017,1.99755
5.50783,1.99705
5.51549,2.01788
5.52315,1.9812
5.53081,1.97038
5.53847,2.0545
5.54613,1.99098
5.55379,1.99415
5.56145,2.02828
5.56911,1.98753
5.57677,2.01763
5.58443,1.9728
5.59209,2.00868
5.59975,2.05713
5.60741,2.0186
5.61507,2.02585
5.62273,2.0251
5.63039,2.00935
5.63805,2.03263
5.64571,2.08028
5.65337,2.07948
5.66103,2.031
5.66869,2.05805
5.67636,2.05925
5.68402,1.9929
5.69168,2.06408
5.69934,2.061
5.707,2.1186
5.71466,2.10203
5.72232,2.0893
5.72998,2.08448
5.73764,2.11565
5.7453,2.11338
5.75296,2.12905
5.76062,2.14135
5.76828,2.12963
5.77594,2.1285
5.7836,2.17343
5.79126,2.18095
5.79892,2.21395
5.80658,2.19068
5.81424,2.18503
5.8219,2.23425
5.82956,2.21225
5.83722,2.22698
5.84488,2.26413
5.85254,2.25878
5.8602,2.2611
5.86787,2.27928
5.87553,2.28323
5.88319,2.28505
5.89085,2.32793
5.89851,2.33308
5.90617,2.3407
5.91383,2.3206
5.92149,2.36263
5.92915,2.35625
5.93681,2.3352
5.94447,2.3452
5.95213,2.35743
5.95979,2.3969
5.96745,2.40595
5.97511,2.39325
5.98277,2.39195
5.99043,2.41468
5.99809,2.43108
6.00575,2.4196
6.01341,2.47285
6.02107,2.43623
6.02873,2.47393
6.03639,2.4836
6.04405,2.50098
6.05171,2.50015
6.05938,2.5425
6.06704,2.52713
6.0747,2.56378
6.08236,2.56155
6.09002,2.58978
6.09768,2.59015
6.10534,2.61243
6.113,2.6202
6.12066,2.62838
6.12832,2.6495
6.13598,2.6465
6.14364,2.67018
6.1513,2.6849
6.15896,2.69885
6.16662,2.73165
6.17428,2.73833
6.18194,2.74523
6.1896,2.7712
6.19726,2.78435
6.20492,2.79793
6.21258,2.80575
6.22024,2.8436
6.2279,2.85208
6.23556,2.86375
6.24322,2.87188
6.25088,2.89315
6.25855,2.8993
6.26621,2.91445
6.27387,2.92955
6.28153,2.91705
6.28919,2.93915
6.29685,2.953
6.30451,2.94933
6.31217,2.97043
6.31983,2.97105
6.32749,2.97715
6.33515,2.9803
6.34281,2.9955
6.35047,2.99413
6.35813,3.00113
6.36579,3.01335
6.37345,3.0168
6.38111,3.0141
6.38877,3.0141
6.39643,3.01363
6.40409,3.01315
6.41175,2.99835
6.41941,3.00333
6.42707,3.00863
6.43473,3.00535
6.44239,3.00193
6.45006,3.00313
6.45772,2.98403
6.46538,2.99335
6.47304,2.99153
6.4807,2.97658
6.48836,2.98258
6.49602,2.96478
6.50368,2.95528
6.51134,2.95155
6.519,2.93713
6.52666,2.9341
6.53432,2.92815
6.54198,2.89733
6.54964,2.90565
6.5573,2.87735
6.56496,2.88028
6.57262,2.8779
6.58028,2.855
6.58794,2.83898
6.5956,2.84263
6.60326,2.8231
6.61092,2.81068
6.61858,2.81775
6.62624,2.76053
6.6339,2.78685
6.64157,2.76395
6.64923,2.75883
6.65689,2.7406
6.66455,2.74758
6.67221,2.73585
6.67987,2.74015
6.68753,2.75273
6.69519,2.71305
6.70285,2.74248
6.71051,2.73543
6.71817,2.7243
6.72583,2.75285
6.73349,2.72948
6.74115,2.74073
6.74881,2.74988
6.75647,2.74478
6.76413,2.74675
6.77179,2.7535
6.77945,2.74
6.78711,2.7437
6.79477,2.74088
6.80243,2.76805
6.81009,2.76583
6.81775,2.7735
6.82541,2.77683
6.83308,2.77025
6.84074,2.75998
6.8484,2.80008
6.85606,2.7915
6.86372,2.79348
6.87138,2.79323
6.87904,2.7916
6.8867,2.80655
6.89436,2.79648
6.90202,2.81785
6.90968,2.8083
6.91734,2.81638
6.925,2.80095
6.93266,2.80228
6.94032,2.80208
6.94798,2.81785
6.95564,2.80828
6.9633,2.79795
6.97096,2.79723
6.97862,2.79295
6.98628,2.8035
6.99394,2.79438
7.0016,2.78245
7.00926,2.78493
7.01692,2.78543
7.02459,2.77368
7.03225,2.75295
7.03991,2.76115
7.04757,2.72923
7.05523,2.71983
7.06289,2.73218
7.07055,2.71505
7.07821,2.7008
7.08587,2.69593
7.09353,2.6811
7.10119,2.66293
7.10885,2.66688
7.11651,2.62388
7.12417,2.6178
7.13183,2.611
7.13949,2.587
7.14715,2.55913
7.15481,2.54755
7.16247,2.52688
7.17013,2.52498
7.17779,2.49998
7.18545,2.47985
7.19311,2.46075
7.20077,2.4467
7.20843,2.4327
7.2161,2.3684
7.22376,2.3838
7.23142,2.39893
7.23908,2.33645
7.24674,2.32515
7.2544,2.31815
7.26206,2.2837
7.26972,2.26075
7.27738,2.21665
7.28504,2.17203
7.2927,2.1936
7.30036,2.1614
7.30802,2.12268
7.31568,2.14253
7.32334,2.06428
7.331,2.06113
7.33866,2.08133
7.34632,2.0334
7.35398,2.06343
7.36164,2.0278
7.3693,2.00895
7.37696,1.99963
7.38462,1.965
7.39228,1.9496
7.39994,1.9243
7.40761,1.94248
7.41527,1.9061
7.42293,1.933
7.43059,1.92093
7.43825,1.91053
7.44591,1.9064
7.45357,1.8828
7.46123,1.85165
7.46889,1.8743
7.47655,1.82183
7.48421,1.87873
7.49187,1.8074
7.49953,1.84563
7.50719,1.86423
7.51485,1.8448
7.52251,1.82615
7.53017,1.86288
7.53783,1.83515
7.54549,1.80805
7.55315,1.78495
7.56081,1.82268
7.56847,1.79553
7.57613,1.821
7.58379,1.83928
7.59145,1.8068
7.59912,1.7629
7.60678,1.79238
7.61444,1.81655
7.6221,1.81485
7.62976,1.8036
7.63742,1.81895
7.64508,1.78728
7.65274,1.7706
7.6604,1.75885
7.66806,1.79218
7.67572,1.77408
7.68338,1.77703
7.69104,1.75775
7.6987,1.77833
7.70636,1.73408
7.71402,1.77485
7.72168,1.70718
7.72934,1.68685
7.737,1.75218
7.74466,1.7205
7.75232,1.7358
7.75998,1.7265
7.76764,1.70528
7.7753,1.64915
7.78296,1.6988
7.79063,1.6858
7.79829,1.6479
7.80595,1.66463
7.81361,1.66003
7.82127,1.62148
7.82893,1.62663
7.83659,1.61213
7.84425,1.60208
7.85191,1.60675
7.85957,1.528
7.86723,1.54318
7.87489,1.55968
7.88255,1.54735
7.89021,1.47308
7.89787,1.43585
7.90553,1.5002
7.91319,1.4565
7.92085,1.493
7.92851,1.48653
7.93617,1.32673
7.94383,1.48985
7.95149,1.4175
7.95915,1.44068
7.96681,1.33505
7.97447,1.3406
7.98213,1.36733
7.9898,1.36183
7.99746,1.33043
8.00512,1.18545
8.01278,1.30075
8.02044,1.4404
8.0281,1.26723
8.03576,1.31993
8.04342,1.19668
8.05108,1.35783
8.05874,1.22193
8.0664,1.19735
8.07406,1.23005
8.08172,1.21578
8.08938,1.31665
8.09704,1.20828
8.1047,1.2581
8.11236,1.22765
8.12002,1.23413
8.12768,1.2332
8.13534,1.16005
8.143,1.04212
8.15066,1.23873
8.15832,1.24555
8.16598,1.27563
8.17364,1.2559
8.18131,1.16923
8.18897,1.25428
8.19663,1.23628
8.20429,1.20128
8.21195,1.13858
8.21961,1.19845
8.22727,1.11198
8.23493,1.19813
8.24259,1.18203
8.25025,1.13687
8.25791,1.1182
8.26557,1.138
8.27323,1.1947
8.28089,1.18623
8.28855,1.18813
8.29621,1.18113
8.30387,1.1471
8.31153,1.12909
8.31919,1.1697
8.32685,1.09592
8.33451,1.04245
8.34217,1.09061
8.34983,1.13799
8.35749,1.1226
8.36515,1.08055
8.37282,1.00815
8.38048,1.0871
8.38814,1.1018
8.3958,1.06668
8.40346,1.05633
8.41112,1.09926
8.41878,0.95409
8.42644,1.13353
8.4341,1.05438
8.44176,1.08025
8.44942,1.1322
8.45708,1.13918
8.46474,1.06596
8.4724,1.14438
8.48006,1.12855
8.48772,1.13295
8.49538,1.02989
8.50304,1.06911
8.5107,1.12015
8.51836,1.19735
8.52602,1.1121
8.53368,1.0993
8.54134,1.07612
8.549,0.87353
8.55666,1.0981
8.56433,1.07841
8.57199,1.10934
8.57965,1.07418
8.58731,1.11328
8.59497,1.0774
8.60263,1.15613
8.61029,1.10903
8.61795,1.11041
8.62561,1.13465
8.63327,1.0647
8.64093,1.17175
8.64859,1.05329
8.65625,1.13994
8.66391,1.04095
8.67157,1.05632
8.67923,1.05112
8.68689,1.13
8.69455,1.15088
8.70221,1.0176
8.70987,1.05112
8.71753,1.05664
8.72519,0.98807
8.73285,1.03272
8.74051,1.11328
8.74817,1.03684
8.75584,0.98612
8.7635,0.99281
8.77116,0.99692
8.77882,1.10125
8.78648,0.97587
8.79414,1.01871
8.8018,1.04294
8.80946,0.9529
8.81712,0.91087
8.82478,1.07611
8.83244,0.92285
8.8401,0.98337
8.84776,1.00398
8.85542,1.04468
8.86308,0.92867
8.87074,1.1506
8.8784,1.00927
8.88606,1.02109
8.89372,0.92365
8.90138,0.93934
8.90904,0.99671
8.9167,1.01261
8.92436,0.95045
8.93202,0.92561
8.93968,0.99692
8.94735,0.95819
8.95501,0.97091
8.96267,0.97054
8.97033,0.99692
8.97799,1.06668
8.98565,0.9454
8.99331,0.95409
9.00097,0.96276
9.00863,0.97469
9.01629,0.88908
9.02395,1.01184
9.03161,0.86179
9.03927,0.86819
9.04693,1.0972
9.05459,1.1121
9.06225,0.83891
9.06991,0.91755
9.07757,1.00955
9.08523,0.88908
9.09289,0.94541
9.10055,0.89943
9.10821,0.80939
9.11587,0.87883
9.12353,0.97081
9.13119,0.6831
9.13886,1.00815
9.14652,0.83361
9.15418,0.84062
9.16184,0.74891
9.1695,0.82217
9.17716,0.90472
9.18482,0.81138
9.19248,0.94234
9.20014,0.84791
9.2078,0.95046
9.21546,0.9619
9.22312,0.91755
9.23078,0.94541
9.23844,0.98638
9.2461,0.90887
9.25376,0.93066
9.26142,0.83924
9.26908,0.80238
9.27674,0.86179
9.2844,0.97999
9.29206,0.94345
9.29972,0.8493
9.30738,1.00955
9.31504,0.89332
9.3227,0.8752
9.33037,0.79932
9.33803,0.95013
9.34569,0.97664
9.35335,0.81382
9.36101,0.84506
9.36867,0.94879
9.37633,0.83056
9.38399,0.94541
9.39165,0.90472
9.39931,0.80437
9.40697,0.99448
9.41463,0.89609
9.42229,0.98413
9.42995,0.89967
9.43761,0.98392
9.44527,0.94011
9.45293,0.85736
9.46059,0.92899
9.46825,0.96157
9.47591,0.99982
9.48357,0.8484
9.49123,0.95408
9.49889,0.7966
9.50655,0.88816
9.51421,0.84396
9.52188,0.67561
9.52954,0.94541
9.5372,0.89943
9.54486,0.93959
9.55252,0.9329
9.56018,0.95408
9.56784,0.81501
9.5755,0.97268
9.58316,0.72468
