KEV,INTENSITY
0.380987,4.009249
0.388457,3.956943
0.395928,3.905466
0.403398,3.854092
0.410868,3.802128
0.418339,3.753949
0.425809,3.706569
0.433279,3.658891
0.44075,3.613
0.44822,3.567605
0.45569,3.524591
0.463161,3.480035
0.470631,3.438989
0.478101,3.397815
0.485572,3.360151
0.493042,3.321911
0.500512,3.284183
0.507983,3.250831
0.515453,3.216397
0.522923,3.183826
0.530394,3.151969
0.537864,3.121034
0.545334,3.095417
0.552805,3.062582
0.560275,3.043506
0.567745,3.015322
0.575216,2.993909
0.582686,2.972946
0.590156,2.950465
0.597627,2.928282
0.605097,2.911795
0.612567,2.895872
0.620038,2.876491
0.627508,2.86462
0.634978,2.848388
0.642449,2.833468
0.649919,2.817732
0.657389,2.7987
0.66486,2.792289
0.67233,2.772995
0.6798,2.763103
0.687271,2.754914
0.694741,2.736432
0.702211,2.73132
0.709682,2.716552
0.717152,2.701023
0.724622,2.691354
0.732093,2.679429
0.739563,2.661897
0.747033,2.656517
0.754504,2.645709
0.761974,2.630794
0.769444,2.620098
0.776915,2.606743
0.784385,2.596245
0.791855,2.576168
0.799326,2.573491
0.806796,2.562012
0.814266,2.542354
0.821737,2.526192
0.829207,2.517629
0.836677,2.492732
0.844148,2.485283
0.851618,2.468252
0.859088,2.453886
0.866559,2.444657
0.874029,2.427195
0.881499,2.412926
0.88897,2.395923
0.89644,2.383097
0.90391,2.373354
0.911381,2.354015
0.918851,2.337488
0.926321,2.320026
0.933792,2.3162
0.941262,2.300383
0.948732,2.28052
0.956203,2.272437
0.963673,2.252774
0.971143,2.246605
0.978614,2.23876
0.986084,2.223474
0.993554,2.211429
1.001025,2.203789
1.008495,2.193412
1.015965,2.182135
1.023436,2.179638
1.030906,2.158032
1.038376,2.166594
1.045847,2.153062
1.053317,2.154731
1.060787,2.143462
1.068258,2.140932
1.075728,2.128525
1.083198,2.122972
1.090669,2.124057
1.098139,2.109658
1.105609,2.108792
1.11308,2.098363
1.12055,2.104992
1.12802,2.097731
1.135491,2.090955
1.142961,2.091018
1.150431,2.088197
1.157902,2.070986
1.165372,2.072938
1.172843,2.08002
1.180313,2.067085
1.187783,2.0688
1.195254,2.064298
1.202724,2.056754
1.210194,2.053311
1.217665,2.048452
1.225135,2.046882
1.232605,2.049766
1.240076,2.042609
1.247546,2.043509
1.255016,2.041855
1.262487,2.024335
1.269957,2.033072
1.277427,2.042254
1.284898,2.026943
1.292368,2.032011
1.299838,2.034315
1.307309,2.029595
1.314779,2.025788
1.322249,2.023892
1.32972,2.030691
1.33719,2.02612
1.34466,2.032972
1.352131,2.031498
1.359601,2.029857
1.367071,2.029482
1.374542,2.045809
1.382012,2.030449
1.389482,2.038835
1.396953,2.043929
1.404423,2.045571
1.411893,2.040072
1.419364,2.057151
1.426834,2.050945
1.434304,2.055254
1.441775,2.059923
1.449245,2.052466
1.456715,2.05334
1.464186,2.055443
1.471656,2.059552
1.479126,2.054228
1.486597,2.057698
1.494067,2.049692
1.501537,2.057228
1.509008,2.054029
1.516478,2.053122
1.523948,2.047868
1.531419,2.050568
1.538889,2.046474
1.546359,2.050298
1.55383,2.039434
1.5613,2.042117
1.56877,2.047777
1.576241,2.04104
1.583711,2.053152
1.591181,2.041168
1.598652,2.053506
1.606122,2.058678
1.613592,2.056682
1.621063,2.07108
1.628533,2.069975
1.636003,2.070548
1.643474,2.062902
1.650944,2.073586
1.658414,2.076158
1.665885,2.080963
1.673355,2.078232
1.680825,2.089435
1.688296,2.093434
1.695766,2.09156
1.703236,2.099078
1.710707,2.100622
1.718177,2.09194
1.725647,2.094926
1.733118,2.096515
1.740588,2.083774
1.748058,2.082945
1.755529,2.079178
1.762999,2.073009
1.770469,2.067534
1.77794,2.045115
1.78541,2.045691
1.79288,2.030255
1.800351,2.030051
1.807821,2.013422
1.815291,2.003338
1.822762,1.983892
1.830232,1.976642
1.837702,1.949249
1.845173,1.944811
1.852643,1.918051
1.860113,1.897755
1.867584,1.892249
1.875054,1.894145
1.882524,1.872231
1.889995,1.852378
1.897465,1.832238
1.904935,1.825365
1.912406,1.807951
1.919876,1.800055
1.927346,1.783718
1.934817,1.780786
1.942287,1.766766
1.949757,1.750597
1.957228,1.732917
1.964698,1.740085
1.972168,1.720152
1.979639,1.726162
1.987109,1.713731
1.994579,1.708606
2.00205,1.703102
2.00952,1.692738
2.01699,1.679969
2.024461,1.669895
2.031931,1.649915
2.039401,1.639058
2.046872,1.629837
2.054342,1.632502
2.061812,1.633682
2.069283,1.618446
2.076753,1.615275
2.084223,1.596309
2.091694,1.614266
2.099164,1.604765
2.106634,1.604189
2.114105,1.596818
2.121575,1.595591
2.129045,1.610698
2.136516,1.594932
2.143986,1.603034
2.151456,1.60418
2.158927,1.591755
2.166397,1.616937
2.173867,1.609752
2.181338,1.631157
2.188808,1.608017
2.196278,1.621617
2.203749,1.622683
2.211219,1.637023
2.218689,1.644563
2.22616,1.6482
2.23363,1.637428
2.2411,1.63752
2.248571,1.663549
2.256041,1.656451
2.263511,1.656954
2.270982,1.659777
2.278452,1.662551
2.285922,1.666172
2.293393,1.688282
2.300863,1.663688
2.308333,1.665794
2.315804,1.660434
2.323274,1.650735
2.330744,1.65742
2.338215,1.642992
2.345685,1.640912
2.353155,1.62662
2.360626,1.625572
2.368096,1.598038
2.375566,1.599857
2.383037,1.59718
2.390507,1.596592
2.397977,1.563912
2.405448,1.566686
2.412918,1.5618
2.420388,1.547922
2.427859,1.521695
2.435329,1.511192
2.442799,1.51424
2.45027,1.48602
2.45774,1.486294
2.46521,1.476229
2.472681,1.469897
2.480151,1.460835
2.487621,1.449914
2.495092,1.452309
2.502562,1.442495
2.510032,1.438362
2.517503,1.441343
2.524973,1.443175
2.532443,1.427185
2.539914,1.42066
2.547384,1.421966
2.554854,1.434558
2.562325,1.424991
2.569795,1.422588
2.577265,1.416965
2.584736,1.420555
2.592206,1.415809
2.599676,1.424611
2.607147,1.436537
2.614617,1.407958
2.622087,1.425071
2.629558,1.430803
2.637028,1.407878
2.644498,1.424852
2.651969,1.41758
2.659439,1.437812
2.666909,1.416443
2.67438,1.402175
2.68185,1.405655
2.68932,1.406385
2.696791,1.387925
2.704261,1.394431
2.711731,1.389189
2.719202,1.383191
2.726672,1.388765
2.734142,1.377138
2.741613,1.386494
2.749083,1.367862
2.756553,1.389192
2.764024,1.377086
2.771494,1.384263
2.778964,1.373151
2.786435,1.382142
2.793905,1.355989
2.801375,1.371495
2.808846,1.34518
2.816316,1.361286
2.823786,1.337626
2.831257,1.384631
2.838727,1.369251
2.846197,1.383588
2.853668,1.365788
2.861138,1.376515
2.868608,1.365785
2.876079,1.384098
2.883549,1.375455
2.891019,1.39222
2.89849,1.403768
2.90596,1.380237
2.91343,1.391143
2.920901,1.399905
2.928371,1.400555
2.935841,1.387155
2.943312,1.414614
2.950782,1.400303
2.958252,1.417337
2.965723,1.437272
2.973193,1.444986
2.980663,1.430717
2.988134,1.452335
2.995604,1.481298
3.003074,1.474185
3.010545,1.495286
3.018015,1.515409
3.025485,1.487309
3.032956,1.540434
3.040426,1.531485
3.047896,1.5497
3.055367,1.564634
3.062837,1.577375
3.070307,1.603695
3.077778,1.61814
3.085248,1.639958
3.092718,1.663606
3.100189,1.685931
3.107659,1.708155
3.115129,1.714669
3.1226,1.756858
3.13007,1.758031
3.13754,1.799703
3.145011,1.807578
3.152481,1.841123
3.159951,1.853245
3.167422,1.8833
3.174892,1.908151
3.182362,1.924263
3.189833,1.958866
3.197303,1.971508
3.204773,1.992283
3.212244,2.015742
3.219714,2.029674
3.227184,2.049854
3.234655,2.063991
3.242125,2.076888
3.249595,2.099382
3.257066,2.109957
3.264536,2.116383
3.272006,2.116395
3.279477,2.139448
3.286947,2.146355
3.294417,2.147794
3.301888,2.162426
3.309358,2.158986
3.316828,2.169368
3.324299,2.172222
3.331769,2.180126
3.339239,2.174235
3.34671,2.170329
3.35418,2.178528
3.36165,2.17574
3.369121,2.175265
3.376591,2.178246
3.384061,2.170626
3.391532,2.163645
3.399002,2.181503
3.406472,2.182615
3.413943,2.177197
3.421413,2.187503
3.428883,2.186709
3.436354,2.210983
3.443824,2.207551
3.451294,2.218154
3.458765,2.237098
3.466235,2.258583
3.473706,2.268811
3.481176,2.289163
3.488646,2.306925
3.496117,2.326994
3.503587,2.345089
3.511057,2.373515
3.518528,2.398094
3.525998,2.427529
3.533468,2.445048
3.540939,2.466843
3.548409,2.485883
3.555879,2.513148
3.56335,2.535766
3.57082,2.554272
3.57829,2.574766
3.585761,2.596605
3.593231,2.612377
3.600701,2.627634
3.608172,2.642375
3.615642,2.662117
3.623112,2.67296
3.630583,2.684963
3.638053,2.695423
3.645523,2.700397
3.652994,2.710922
3.660464,2.710829
3.667934,2.720892
3.675405,2.722477
3.682875,2.717122
3.690345,2.718818
3.697816,2.710103
3.705286,2.706672
3.712756,2.699612
3.720227,2.699882
3.727697,2.684265
3.735167,2.673251
3.742638,2.659368
3.750108,2.641652
3.757578,2.625935
3.765049,2.6107
3.772519,2.590317
3.779989,2.573469
3.78746,2.550752
3.79493,2.52954
3.8024,2.508211
3.809871,2.492114
3.817341,2.472962
3.824811,2.441788
3.832282,2.422788
3.839752,2.400637
3.847222,2.371388
3.854693,2.357498
3.862163,2.332626
3.869633,2.311638
3.877104,2.290918
3.884574,2.270074
3.892044,2.250314
3.899515,2.23544
3.906985,2.208526
3.914455,2.196723
3.921926,2.173632
3.929396,2.166152
3.936866,2.14962
3.944337,2.147929
3.951807,2.136968
3.959277,2.127903
3.966748,2.121152
3.974218,2.097931
3.981688,2.100955
3.989159,2.088131
3.996629,2.075205
4.004099,2.082174
4.01157,2.078034
4.01904,2.066823
4.02651,2.052962
4.033981,2.052146
4.041451,2.032445
4.048921,2.036938
4.056392,2.0281
4.063862,2.020709
4.071332,2.008086
4.078803,2.005197
4.086273,1.989125
4.093743,1.979314
4.101214,1.964395
4.108684,1.946251
4.116154,1.924782
4.123625,1.928051
4.131095,1.911945
4.138565,1.894851
4.146036,1.886851
4.153506,1.892142
4.160976,1.872063
4.168447,1.880489
4.175917,1.850383
4.183387,1.838834
4.190858,1.844012
4.198328,1.822291
4.205798,1.835642
4.213269,1.831989
4.220739,1.843589
4.228209,1.845378
4.23568,1.848235
4.24315,1.859109
4.25062,1.88504
4.258091,1.879994
4.265561,1.893088
4.273031,1.930562
4.280502,1.941032
4.287972,1.959351
4.295442,1.990365
4.302913,2.007652
4.310383,2.01904
4.317853,2.051046
4.325324,2.072666
4.332794,2.086869
4.340264,2.114491
4.347735,2.143943
4.355205,2.165825
4.362675,2.184922
4.370146,2.208682
4.377616,2.232543
4.385086,2.254925
4.392557,2.27234
4.400027,2.29326
4.407497,2.312462
4.414968,2.323763
4.422438,2.344358
4.429908,2.352331
4.437379,2.367583
4.444849,2.377483
4.452319,2.390928
4.45979,2.399183
4.46726,2.413055
4.47473,2.421129
4.482201,2.417137
4.489671,2.424022
4.497141,2.428578
4.504612,2.427634
4.512082,2.428488
4.519552,2.429802
4.527023,2.423754
4.534493,2.413197
4.541963,2.413466
4.549434,2.410363
4.556904,2.400037
4.564374,2.382089
4.571845,2.373918
4.579315,2.361543
4.586785,2.351935
4.594256,2.332429
4.601726,2.318994
4.609196,2.293288
4.616667,2.275828
4.624137,2.263514
4.631607,2.244795
4.639078,2.213569
4.646548,2.199595
4.654018,2.169028
4.661489,2.150558
4.668959,2.134965
4.676429,2.103848
4.6839,2.084122
4.69137,2.061998
4.69884,2.033205
4.706311,2.016278
4.713781,1.992185
4.721251,1.985643
4.728722,1.948234
4.736192,1.93284
4.743662,1.915126
4.751133,1.91476
4.758603,1.899718
4.766073,1.873229
4.773544,1.867489
4.781014,1.869748
4.788484,1.85966
4.795955,1.859672
4.803425,1.861757
4.810895,1.866351
4.818366,1.849703
4.825836,1.862105
4.833306,1.867162
4.840777,1.866203
4.848247,1.860054
4.855717,1.87264
4.863188,1.863442
4.870658,1.871129
4.878128,1.873189
4.885599,1.869791
4.893069,1.883766
4.900539,1.878308
4.90801,1.888691
4.91548,1.892368
4.92295,1.894923
4.930421,1.893911
4.937891,1.889475
4.945361,1.884852
4.952832,1.884135
4.960302,1.883088
4.967772,1.892017
4.975243,1.877938
4.982713,1.874085
4.990183,1.879037
4.997654,1.880254
5.005124,1.874902
5.012594,1.86936
5.020065,1.864729
5.027535,1.855
5.035005,1.840022
5.042476,1.849055
5.049946,1.850085
5.057416,1.838542
5.064887,1.837009
5.072357,1.845622
5.079827,1.847946
5.087298,1.836691
5.094768,1.845605
5.102238,1.838935
5.109709,1.844934
5.117179,1.840843
5.124649,1.862438
5.13212,1.859715
5.13959,1.871574
5.14706,1.867729
5.154531,1.877338
5.162001,1.89506
5.169471,1.900878
5.176942,1.901798
5.184412,1.911371
5.191882,1.916703
5.199353,1.945518
5.206823,1.958691
5.214293,1.968443
5.221764,1.980012
5.229234,1.988828
5.236704,2.00354
5.244175,2.026186
5.251645,2.042965
5.259115,2.054083
5.266586,2.070526
5.274056,2.085578
5.281526,2.10132
5.288997,2.119485
5.296467,2.130609
5.303937,2.139015
5.311408,2.155683
5.318878,2.167832
5.326348,2.177702
5.333819,2.188338
5.341289,2.19208
5.348759,2.212783
5.35623,2.214182
5.3637,2.216986
5.37117,2.222183
5.378641,2.22298
5.386111,2.235248
5.393581,2.240457
5.401052,2.238062
5.408522,2.237605
5.415992,2.238512
5.423463,2.245672
5.430933,2.240295
5.438403,2.235965
5.445874,2.232762
5.453344,2.231665
5.460814,2.221666
5.468285,2.21578
5.475755,2.206234
5.483225,2.213134
5.490696,2.199791
5.498166,2.182005
5.505636,2.177692
5.513107,2.174845
5.520577,2.150623
5.528047,2.153083
5.535518,2.145288
5.542988,2.143326
5.550458,2.133103
5.557929,2.131814
5.565399,2.122255
5.572869,2.115209
5.58034,2.117495
5.58781,2.105525
5.59528,2.104288
5.602751,2.116812
5.610221,2.105242
5.617691,2.102815
5.625162,2.11832
5.632632,2.11624
5.640102,2.12824
5.647573,2.141235
5.655043,2.143474
5.662513,2.158258
5.669984,2.168932
5.677454,2.175282
5.684924,2.190986
5.692395,2.205334
5.699865,2.212048
5.707335,2.229698
5.714806,2.240475
5.722276,2.260943
5.729746,2.280848
5.737217,2.292418
5.744687,2.307438
5.752157,2.326031
5.759628,2.336262
5.767098,2.348511
5.774569,2.3594
5.782039,2.375609
5.789509,2.39376
5.79698,2.406006
5.80445,2.424954
5.81192,2.440309
5.819391,2.453389
5.826861,2.463671
5.834331,2.471122
5.841802,2.486072
5.849272,2.494418
5.856742,2.503631
5.864213,2.516025
5.871683,2.525991
5.879153,2.527363
5.886624,2.530777
5.894094,2.536706
5.901564,2.543126
5.909035,2.54788
5.916505,2.555417
5.923975,2.555449
5.931446,2.556752
5.938916,2.556835
5.946386,2.558615
5.953857,2.555291
5.961327,2.561337
5.968797,2.563337
5.976268,2.560305
5.983738,2.565045
5.991208,2.565837
5.998679,2.567229
6.006149,2.570183
6.013619,2.573211
6.02109,2.576286
6.02856,2.579009
6.03603,2.588822
6.043501,2.597489
6.050971,2.603802
6.058441,2.606086
6.065912,2.621434
6.073382,2.634738
6.080852,2.646446
6.088323,2.663246
6.095793,2.676138
6.103263,2.696866
6.110734,2.709655
6.118204,2.73072
6.125674,2.746677
6.133145,2.77314
6.140615,2.792898
6.148085,2.814308
6.155556,2.83862
6.163026,2.862968
6.170496,2.88346
6.177967,2.904837
6.185437,2.931038
6.192907,2.953277
6.200378,2.978915
6.207848,3.001534
6.215318,3.02568
6.222789,3.047612
6.230259,3.067618
6.237729,3.088349
6.2452,3.108926
6.25267,3.130509
6.26014,3.150391
6.267611,3.168738
6.275081,3.185654
6.282551,3.200942
6.290022,3.219245
6.297492,3.232878
6.304962,3.248451
6.312433,3.257314
6.319903,3.269669
6.327373,3.282369
6.334844,3.289857
6.342314,3.299977
6.349784,3.304814
6.357255,3.312688
6.364725,3.31568
6.372195,3.320466
6.379666,3.321011
6.387136,3.322611
6.394606,3.320757
6.402077,3.316806
6.409547,3.315722
6.417017,3.312049
6.424488,3.303505
6.431958,3.298071
6.439428,3.288972
6.446899,3.279017
6.454369,3.268345
6.461839,3.25318
6.46931,3.24136
6.47678,3.228054
6.48425,3.209131
6.491721,3.1904
6.499191,3.172082
6.506661,3.151402
6.514132,3.131214
6.521602,3.106235
6.529072,3.083732
6.536543,3.061103
6.544013,3.037174
6.551483,3.009915
6.558954,2.985768
6.566424,2.960206
6.573894,2.93222
6.581365,2.905729
6.588835,2.877098
6.596305,2.856822
6.603776,2.830191
6.611246,2.805532
6.618716,2.782689
6.626187,2.765025
6.633657,2.745495
6.641127,2.726955
6.648598,2.7109
6.656068,2.697572
6.663538,2.688671
6.671009,2.683429
6.678479,2.670508
6.685949,2.67682
6.69342,2.673849
6.70089,2.678145
6.70836,2.689457
6.715831,2.696718
6.723301,2.710918
6.730771,2.717975
6.738242,2.735002
6.745712,2.745997
6.753182,2.763205
6.760653,2.774369
6.768123,2.792678
6.775593,2.809282
6.783064,2.823831
6.790534,2.837817
6.798004,2.853189
6.805475,2.870806
6.812945,2.881868
6.820415,2.896622
6.827886,2.908631
6.835356,2.92512
6.842826,2.935828
6.850297,2.945935
6.857767,2.954432
6.865237,2.964502
6.872708,2.973514
6.880178,2.976351
6.887648,2.989506
6.895119,2.992772
6.902589,2.994985
6.910059,3.000005
6.91753,3.002246
6.925,3.002702
6.93247,3.002812
6.939941,3.000362
6.947411,2.999112
6.954881,2.998531
6.962352,2.99294
6.969822,2.987432
6.977292,2.982598
6.984763,2.973002
6.992233,2.966983
6.999703,2.958783
7.007174,2.945209
7.014644,2.934494
7.022114,2.920932
7.029585,2.909171
7.037055,2.891732
7.044525,2.878569
7.051996,2.86408
7.059466,2.842691
7.066936,2.824503
7.074407,2.801265
7.081877,2.782208
7.089347,2.759417
7.096818,2.740712
7.104288,2.711697
7.111758,2.691235
7.119229,2.66712
7.126699,2.635234
7.134169,2.614932
7.14164,2.583957
7.14911,2.556628
7.15658,2.524526
7.164051,2.493172
7.171521,2.465035
7.178991,2.430809
7.186462,2.409969
7.193932,2.368569
7.201402,2.343369
7.208873,2.307494
7.216343,2.275842
7.223813,2.231232
7.231284,2.201449
7.238754,2.169223
7.246224,2.132049
7.253695,2.110863
7.261165,2.076135
7.268635,2.045175
7.276106,2.019129
7.283576,1.985314
7.291046,1.958382
7.298517,1.920888
7.305987,1.919325
7.313457,1.888906
7.320928,1.866438
7.328398,1.853294
7.335868,1.836831
7.343339,1.822234
7.350809,1.818438
7.358279,1.800248
7.36575,1.807663
7.37322,1.790058
7.38069,1.800854
7.388161,1.791478
7.395631,1.790905
7.403101,1.780163
7.410572,1.801502
7.418042,1.813646
7.425512,1.801034
7.432983,1.80522
7.440453,1.806877
7.447923,1.817598
7.455394,1.823734
7.462864,1.83384
7.470334,1.840691
7.477805,1.83628
7.485275,1.858428
7.492745,1.859789
7.500216,1.860997
7.507686,1.869695
7.515156,1.890157
7.522627,1.881852
7.530097,1.893323
7.537567,1.883751
7.545038,1.906445
7.552508,1.897383
7.559978,1.917249
7.567449,1.912663
7.574919,1.895212
7.582389,1.913054
7.58986,1.910729
7.59733,1.889855
7.6048,1.89546
7.612271,1.890811
7.619741,1.894431
7.627211,1.889445
7.634682,1.883189
7.642152,1.888411
7.649622,1.879226
7.657093,1.879669
7.664563,1.864978
7.672033,1.861617
7.679504,1.853448
7.686974,1.838258
7.694444,1.830094
7.701915,1.809617
7.709385,1.816022
7.716855,1.793846
7.724326,1.787386
7.731796,1.778038
7.739266,1.756845
7.746737,1.737254
7.754207,1.723237
7.761677,1.704078
7.769148,1.681452
7.776618,1.662355
7.784088,1.639138
7.791559,1.621777
7.799029,1.599448
7.806499,1.591872
7.81397,1.564977
7.82144,1.530397
7.82891,1.521822
7.836381,1.490538
7.843851,1.483942
7.851321,1.450174
7.858792,1.433245
7.866262,1.397012
7.873732,1.387031
7.881203,1.362265
7.888673,1.353554
7.896143,1.340845
7.903614,1.362062
7.911084,1.301322
7.918554,1.306674
7.926025,1.299188
7.933495,1.272137
7.940965,1.243081
7.948436,1.225868
7.955906,1.245619
7.963376,1.204625
7.970847,1.248871
7.978317,1.239449
7.985787,1.217434
7.993258,1.197384
8.000728,1.182374
8.008198,1.212525
8.015669,1.219578
8.023139,1.234638
8.030609,1.215511
8.03808,1.21079
8.04555,1.216015
8.05302,1.204914
8.060491,1.170572
8.067961,1.18073
8.075431,1.186297
8.082902,1.191163
8.090372,1.17514
8.097843,1.133169
8.105313,1.15175
8.112783,1.188855
8.120254,1.149
8.127724,1.176002
8.135194,1.155678
8.142665,1.139249
8.150135,1.123828
8.157605,1.167006
8.165076,1.165559
8.172546,1.177294
8.180016,1.141795
8.187487,1.140488
8.194957,1.151416
8.202427,1.137815
8.209898,1.134171
8.217368,1.123357
8.224838,1.153769
8.232309,1.166087
8.239779,1.112813
8.247249,1.103929
8.25472,1.129826
8.26219,1.147979
8.26966,1.109623
8.277131,1.143478
8.284601,1.116364
8.292071,1.118074
8.299542,1.127813
8.307012,1.127632
8.314482,1.122018
