KEV,INTENSITY
0.38683,4.34703
0.39441,4.29678
0.402,4.24993
0.40958,4.20168
0.41717,4.15635
0.42475,4.10893
0.43234,4.05843
0.43992,4.01585
0.44751,3.96963
0.45509,3.92358
0.46268,3.88705
0.47026,3.83625
0.47785,3.8036
0.48543,3.75683
0.49302,3.71673
0.5006,3.68128
0.50819,3.64358
0.51577,3.59955
0.52336,3.56615
0.53094,3.53328
0.53853,3.496
0.54611,3.45915
0.5537,3.43935
0.56128,3.3968
0.56887,3.36978
0.57645,3.34305
0.58404,3.31653
0.59162,3.28323
0.59921,3.26373
0.60679,3.2442
0.61438,3.2228
0.62196,3.19735
0.62955,3.17715
0.63713,3.16073
0.64472,3.12918
0.6523,3.1073
0.65988,3.08843
0.66747,3.07698
0.67505,3.05463
0.68264,3.05485
0.69022,3.02325
0.69781,2.98648
0.70539,2.9823
0.71298,2.96588
0.72056,2.94598
0.72815,2.92838
0.73573,2.92528
0.74332,2.90235
0.7509,2.88048
0.75849,2.85
0.76607,2.85775
0.77366,2.8405
0.78124,2.82378
0.78883,2.8305
0.79641,2.80248
0.804,2.7967
0.81158,2.79918
0.81917,2.7728
0.82675,2.74528
0.83434,2.77713
0.84192,2.7397
0.84951,2.70753
0.85709,2.71718
0.86468,2.68115
0.87226,2.68493
0.87985,2.68063
0.88743,2.68178
0.89502,2.66633
0.9026,2.65435
0.91019,2.64725
0.91777,2.62593
0.92536,2.61075
0.93294,2.6071
0.94053,2.60515
0.94811,2.58695
0.9557,2.5561
0.96328,2.56113
0.97087,2.55855
0.97845,2.52848
0.98604,2.5187
0.99362,2.52713
1.0012,2.50658
1.00879,2.4949
1.01637,2.46703
1.02396,2.46713
1.03154,2.47965
1.03913,2.437
1.04671,2.43385
1.0543,2.40823
1.06188,2.4058
1.06947,2.4049
1.07705,2.36788
1.08464,2.34303
1.09222,2.36685
1.09981,2.361
1.10739,2.37548
1.11498,2.36008
1.12256,2.29818
1.13015,2.32695
1.13773,2.3165
1.14532,2.30115
1.1529,2.2992
1.16049,2.29078
1.16807,2.26733
1.17566,2.25255
1.18324,2.24385
1.19083,2.2487
1.19841,2.23615
1.206,2.23105
1.21358,2.25445
1.22117,2.26903
1.22875,2.25083
1.23634,2.21788
1.24392,2.24128
1.25151,2.22528
1.25909,2.23393
1.26668,2.24983
1.27426,2.21723
1.28185,2.23753
1.28943,2.21868
1.29702,2.25068
1.3046,2.25893
1.31219,2.25093
1.31977,2.2484
1.32735,2.27488
1.33494,2.25925
1.34252,2.26755
1.35011,2.24248
1.35769,2.28175
1.36528,2.26185
1.37286,2.2953
1.38045,2.24783
1.38803,2.2734
1.39562,2.30663
1.4032,2.32898
1.41079,2.28235
1.41837,2.29915
1.42596,2.28503
1.43354,2.33213
1.44113,2.32675
1.44871,2.32043
1.4563,2.32888
1.46388,2.34028
1.47147,2.34898
1.47905,2.33513
1.48664,2.31213
1.49422,2.30908
1.50181,2.31818
1.50939,2.33385
1.51698,2.31885
1.52456,2.31503
1.53215,2.3241
1.53973,2.31593
1.54732,2.27788
1.5549,2.30655
1.56249,2.31523
1.57007,2.31728
1.57766,2.30248
1.58524,2.30025
1.59283,2.3016
1.60041,2.27745
1.608,2.28775
1.61558,2.30623
1.62317,2.3015
1.63075,2.29138
1.63834,2.27078
1.64592,2.2844
1.6535,2.27005
1.66109,2.249
1.66867,2.2869
1.67626,2.27155
1.68384,2.27948
1.69143,2.27503
1.69901,2.26588
1.7066,2.25498
1.71418,2.23108
1.72177,2.22335
1.72935,2.2378
1.73694,2.19168
1.74452,2.21398
1.75211,2.20305
1.75969,2.1916
1.76728,2.17998
1.77486,2.18628
1.78245,2.16693
1.79003,2.10343
1.79762,2.14175
1.8052,2.1033
1.81279,2.087
1.82037,2.08575
1.82796,2.0879
1.83554,2.04565
1.84313,2.03665
1.85071,2.04248
1.8583,2.0239
1.86588,2.04285
1.87347,1.97478
1.88105,1.96065
1.88864,1.96318
1.89622,1.9385
1.90381,1.97253
1.91139,1.9312
1.91898,1.90828
1.92656,1.92013
1.93415,1.87075
1.94173,1.9058
1.94932,1.92168
1.9569,1.84975
1.96449,1.87778
1.97207,1.88988
1.97965,1.83123
1.98724,1.84205
1.99482,1.84348
2.00241,1.87133
2.00999,1.87845
2.01758,1.82423
2.02516,1.83655
2.03275,1.88338
2.04033,1.86298
2.04792,1.83335
2.0555,1.89198
2.06309,1.8204
2.07067,1.877
2.07826,1.8269
2.08584,1.8254
2.09343,1.82135
2.10101,1.8121
2.1086,1.83848
2.11618,1.85635
2.12377,1.86658
2.13135,1.8386
2.13894,1.80905
2.14652,1.84393
2.15411,1.83183
2.16169,1.8888
2.16928,1.84103
2.17686,1.87195
2.18445,1.84848
2.19203,1.869
2.19962,1.8599
2.2072,1.87208
2.21479,1.83598
2.22237,1.80033
2.22996,1.87615
2.23754,1.83308
2.24513,1.86388
2.25271,1.87093
2.2603,1.8501
2.26788,1.90738
2.27547,1.8518
2.28305,1.91093
2.29064,1.90138
2.29822,1.92078
2.30581,1.86133
2.31339,1.88988
2.32097,1.82443
2.32856,1.8594
2.33614,1.82338
2.34373,1.81718
2.35131,1.83558
2.3589,1.86595
2.36648,1.81593
2.37407,1.75068
2.38165,1.84063
2.38924,1.80318
2.39682,1.79483
2.40441,1.83885
2.41199,1.77758
2.41958,1.74135
2.42716,1.74755
2.43475,1.77508
2.44233,1.73385
2.44992,1.72508
2.4575,1.77323
2.46509,1.66785
2.47267,1.70125
2.48026,1.67113
2.48784,1.73015
2.49543,1.73548
2.50301,1.72523
2.5106,1.6914
2.51818,1.6883
2.52577,1.66373
2.53335,1.6606
2.54094,1.75788
2.54852,1.62815
2.55611,1.67135
2.56369,1.63505
2.57128,1.69415
2.57886,1.6255
2.58645,1.75103
2.59403,1.65343
2.60162,1.6298
2.6092,1.72248
2.61679,1.6911
2.62437,1.6604
2.63196,1.70018
2.63954,1.6498
2.64712,1.7389
2.65471,1.70478
2.66229,1.68165
2.66988,1.67138
2.67746,1.67768
2.68505,1.6411
2.69263,1.70623
2.70022,1.71033
2.7078,1.71565
2.71539,1.69295
2.72297,1.69205
2.73056,1.66908
2.73814,1.65068
2.74573,1.6553
2.75331,1.66833
2.7609,1.71628
2.76848,1.7195
2.77607,1.6778
2.78365,1.59618
2.79124,1.6333
2.79882,1.66483
2.80641,1.63355
2.81399,1.69158
2.82158,1.6472
2.82916,1.6018
2.83675,1.65875
2.84433,1.61913
2.85192,1.60468
2.8595,1.66408
2.86709,1.66383
2.87467,1.60478
2.88226,1.64143
2.88984,1.57645
2.89743,1.5737
2.90501,1.63003
2.9126,1.60845
2.92018,1.59945
2.92777,1.5729
2.93535,1.58395
2.94294,1.60518
2.95052,1.63308
2.95811,1.58465
2.96569,1.58828
2.97327,1.65663
2.98086,1.65375
2.98844,1.65443
2.99603,1.53415
3.00361,1.63075
3.0112,1.6654
3.01878,1.57683
3.02637,1.613
3.03395,1.60113
3.04154,1.6187
3.04912,1.61938
3.05671,1.64168
3.06429,1.61635
3.07188,1.61428
3.07946,1.65195
3.08705,1.62695
3.09463,1.6218
3.10222,1.6516
3.1098,1.66813
3.11739,1.64995
3.12497,1.66438
3.13256,1.71755
3.14014,1.72418
3.14773,1.69333
3.15531,1.6968
3.1629,1.71835
3.17048,1.74098
3.17807,1.72958
3.18565,1.6975
3.19324,1.77705
3.20082,1.79068
3.20841,1.80615
3.21599,1.78998
3.22358,1.80605
3.23116,1.78358
3.23875,1.80548
3.24633,1.82275
3.25392,1.84648
3.2615,1.8695
3.26909,1.88415
3.27667,1.8662
3.28426,1.8448
3.29184,1.8988
3.29942,1.90185
3.30701,1.92588
3.31459,1.8837
3.32218,1.93898
3.32976,1.91928
3.33735,1.92165
3.34493,1.95758
3.35252,1.9352
3.3601,1.99328
3.36769,1.91325
3.37527,1.96265
3.38286,1.97705
3.39044,2.0546
3.39803,2.00845
3.40561,2.04213
3.4132,2.06243
3.42078,2.05035
3.42837,2.06788
3.43595,2.0871
3.44354,2.07978
3.45112,2.12415
3.45871,2.14873
3.46629,2.1963
3.47388,2.19065
3.48146,2.2186
3.48905,2.20653
3.49663,2.2416
3.50422,2.27065
3.5118,2.32158
3.51939,2.2949
3.52697,2.34528
3.53456,2.3791
3.54214,2.3863
3.54973,2.38993
3.55731,2.42228
3.5649,2.4357
3.57248,2.43923
3.58007,2.48355
3.58765,2.49593
3.59524,2.48958
3.60282,2.50658
3.61041,2.5107
3.61799,2.528
3.62558,2.54915
3.63316,2.54185
3.64074,2.55088
3.64833,2.57458
3.65591,2.5769
3.6635,2.57393
3.67108,2.61278
3.67867,2.5904
3.68625,2.59313
3.69384,2.5884
3.70142,2.57303
3.70901,2.57603
3.71659,2.5779
3.72418,2.58518
3.73176,2.5831
3.73935,2.57908
3.74693,2.5678
3.75452,2.54985
3.7621,2.55105
3.76969,2.51298
3.77727,2.51
3.78486,2.49208
3.79244,2.4802
3.80003,2.46708
3.80761,2.452
3.8152,2.41198
3.82278,2.40125
3.83037,2.42588
3.83795,2.38063
3.84554,2.3946
3.85312,2.32525
3.86071,2.3175
3.86829,2.35238
3.87588,2.32605
3.88346,2.28555
3.89105,2.30765
3.89863,2.27513
3.90622,2.25625
3.9138,2.25015
3.92139,2.20155
3.92897,2.1929
3.93656,2.17948
3.94414,2.16865
3.95173,2.13155
3.95931,2.14055
3.96689,2.10048
3.97448,2.07445
3.98206,2.0828
3.98965,2.08385
3.99723,2.05115
4.00482,2.06
4.0124,2.05193
4.01999,2.03073
4.02757,1.97278
4.03516,2.01678
4.04274,2.02088
4.05033,1.99628
4.05791,1.9433
4.0655,1.93498
4.07308,1.9346
4.08067,1.94818
4.08825,1.9774
4.09584,1.9271
4.10342,1.90853
4.11101,1.91938
4.11859,1.83743
4.12618,1.9393
4.13376,1.81553
4.14135,1.8587
4.14893,1.85093
4.15652,1.82318
4.1641,1.85458
4.17169,1.83055
4.17927,1.83835
4.18686,1.83198
4.19444,1.7763
4.20203,1.76205
4.20961,1.82818
4.2172,1.78235
4.22478,1.75848
4.23237,1.76815
4.23995,1.7497
4.24754,1.81638
4.25512,1.84418
4.26271,1.82443
4.27029,1.78675
4.27788,1.8491
4.28546,1.83983
4.29304,1.84943
4.30063,1.88063
4.30821,1.8814
4.3158,1.85123
4.32338,1.87003
4.33097,1.8741
4.33855,1.9391
4.34614,1.91198
4.35372,1.93363
4.36131,1.89093
4.36889,1.92453
4.37648,1.94733
4.38406,1.9317
4.39165,1.93523
4.39923,1.99225
4.40682,1.99625
4.4144,1.99875
4.42199,1.97588
4.42957,1.99368
4.43716,2.0192
4.44474,1.99198
4.45233,2.03128
4.45991,2.00328
4.4675,2.01985
4.47508,2.0196
4.48267,2.07618
4.49025,2.0955
4.49784,2.07238
4.50542,2.06095
4.51301,2.07183
4.52059,2.02068
4.52818,2.06273
4.53576,2.07433
4.54335,2.02118
4.55093,2.05063
4.55852,2.04068
4.5661,2.05365
4.57369,2.0235
4.58127,2.03735
4.58886,2.01775
4.59644,1.9972
4.60403,1.9565
4.61161,1.98205
4.61919,1.9479
4.62678,1.95338
4.63436,1.96595
4.64195,1.9512
4.64953,1.9177
4.65712,1.92478
4.6647,1.88405
4.67229,1.93153
4.67987,1.86238
4.68746,1.8825
4.69504,1.86755
4.70263,1.85465
4.71021,1.8291
4.7178,1.84023
4.72538,1.75845
4.73297,1.78285
4.74055,1.80628
4.74814,1.70485
4.75572,1.79195
4.76331,1.72725
4.77089,1.74895
4.77848,1.69883
4.78606,1.70188
4.79365,1.74163
4.80123,1.69753
4.80882,1.69153
4.8164,1.73535
4.82399,1.67918
4.83157,1.64763
4.83916,1.66923
4.84674,1.72938
4.85433,1.69203
4.86191,1.70963
4.8695,1.67995
4.87708,1.67993
4.88467,1.66368
4.89225,1.67585
4.89984,1.6777
4.90742,1.66135
4.91501,1.64825
4.92259,1.73355
4.93018,1.67378
4.93776,1.6696
4.94535,1.6959
4.95293,1.70893
4.96051,1.70895
4.9681,1.5794
4.97568,1.687
4.98327,1.65125
4.99085,1.65615
4.99844,1.66388
5.00602,1.61148
5.01361,1.58668
5.02119,1.67865
5.02878,1.6382
5.03636,1.63275
5.04395,1.6884
5.05153,1.63273
5.05912,1.63735
5.0667,1.58745
5.07429,1.60118
5.08187,1.63818
5.08946,1.51718
5.09704,1.63698
5.10463,1.59295
5.11221,1.6649
5.1198,1.64928
5.12738,1.60775
5.13497,1.57665
5.14255,1.6222
5.15014,1.59195
5.15772,1.57413
5.16531,1.63965
5.17289,1.66718
5.18048,1.5791
5.18806,1.66075
5.19565,1.67213
5.20323,1.60415
5.21082,1.6528
5.2184,1.59948
5.22599,1.62255
5.23357,1.62775
5.24116,1.54803
5.24874,1.62868
5.25633,1.65008
5.26391,1.6152
5.2715,1.64163
5.27908,1.61678
5.28666,1.63773
5.29425,1.62848
5.30183,1.62605
5.30942,1.62455
5.317,1.6174
5.32459,1.61165
5.33217,1.53528
5.33976,1.64995
5.34734,1.60825
5.35493,1.61175
5.36251,1.61913
5.3701,1.60098
5.37768,1.61935
5.38527,1.63928
5.39285,1.58685
5.40044,1.62723
5.40802,1.69125
5.41561,1.6432
5.42319,1.59033
5.43078,1.6544
5.43836,1.6533
5.44595,1.58995
5.45353,1.5996
5.46112,1.5724
5.4687,1.61138
5.47629,1.57523
5.48387,1.59665
5.49146,1.61223
5.49904,1.61395
5.50663,1.62798
5.51421,1.5839
5.5218,1.62715
5.52938,1.5789
5.53697,1.58288
5.54455,1.58565
5.55214,1.5367
5.55972,1.5782
5.56731,1.6361
5.57489,1.56493
5.58248,1.54258
5.59006,1.59875
5.59765,1.54493
5.60523,1.50805
5.61281,1.54745
5.6204,1.51635
5.62798,1.58448
5.63557,1.61178
5.64315,1.57695
5.65074,1.56245
5.65832,1.55685
5.66591,1.56903
5.67349,1.6043
5.68108,1.58953
5.68866,1.55755
5.69625,1.54248
5.70383,1.55833
5.71142,1.5889
5.719,1.57133
5.72659,1.61955
5.73417,1.67588
5.74176,1.53513
5.74934,1.60705
5.75693,1.5858
5.76451,1.639
5.7721,1.68885
5.77968,1.6304
5.78727,1.69833
5.79485,1.61273
5.80244,1.73405
5.81002,1.63675
5.81761,1.63615
5.82519,1.71018
5.83278,1.6689
5.84036,1.6512
5.84795,1.7007
5.85553,1.70793
5.86312,1.71645
5.8707,1.7459
5.87829,1.76798
5.88587,1.75423
5.89346,1.75903
5.90104,1.75618
5.90863,1.73988
5.91621,1.77225
5.9238,1.77218
5.93138,1.71993
5.93896,1.76148
5.94655,1.72093
5.95413,1.78363
5.96172,1.72443
5.9693,1.80355
5.97689,1.79735
5.98447,1.7456
5.99206,1.74753
5.99964,1.8123
6.00723,1.78473
6.01481,1.7646
6.0224,1.79725
6.02998,1.79383
6.03757,1.83895
6.04515,1.81025
6.05274,1.83
6.06032,1.80178
6.06791,1.8068
6.07549,1.8717
6.08308,1.80753
6.09066,1.90165
6.09825,1.89913
6.10583,1.89455
6.11342,1.94733
6.121,1.9269
6.12859,1.91158
6.13617,1.9321
6.14376,1.93363
6.15134,1.94893
6.15893,1.96785
6.16651,2.00923
6.1741,2.03458
6.18168,1.99708
6.18927,2.0669
6.19685,2.08223
6.20444,2.0856
6.21202,2.08638
6.21961,2.1062
6.22719,2.14123
6.23478,2.14475
6.24236,2.13413
6.24995,2.18255
6.25753,2.17875
6.26512,2.18955
6.2727,2.1851
6.28028,2.22088
6.28787,2.24453
6.29545,2.24953
6.30304,2.28025
6.31062,2.27945
6.31821,2.26468
6.32579,2.28613
6.33338,2.2932
6.34096,2.32763
6.34855,2.30305
6.35613,2.33648
6.36372,2.3262
6.3713,2.35683
6.37889,2.33973
6.38647,2.32995
6.39406,2.349
6.40164,2.3566
6.40923,2.3516
6.41681,2.36603
6.4244,2.33208
6.43198,2.35863
6.43957,2.37055
6.44715,2.35345
6.45474,2.3517
6.46232,2.3573
6.46991,2.32105
6.47749,2.3394
6.48508,2.33435
6.49266,2.31423
6.50025,2.3086
6.50783,2.31338
6.51542,2.30465
6.523,2.30233
6.53059,2.28473
6.53817,2.28258
6.54576,2.26918
6.55334,2.2883
6.56093,2.23775
6.56851,2.24358
6.5761,2.24768
6.58368,2.21238
6.59127,2.22358
6.59885,2.22308
6.60643,2.22018
6.61402,2.20328
6.6216,2.19113
6.62919,2.17035
6.63677,2.17213
6.64436,2.19205
6.65194,2.23455
6.65953,2.18675
6.66711,2.19513
6.6747,2.15505
6.68228,2.2151
6.68987,2.2116
6.69745,2.2084
6.70504,2.18563
6.71262,2.22283
6.72021,2.2233
6.72779,2.24378
6.73538,2.25913
6.74296,2.28168
6.75055,2.28485
6.75813,2.30855
6.76572,2.3153
6.7733,2.323
6.78089,2.3261
6.78847,2.33955
6.79606,2.34098
6.80364,2.35538
6.81123,2.36615
6.81881,2.3838
6.8264,2.41073
6.83398,2.40215
6.84157,2.41033
6.84915,2.4285
6.85674,2.42633
6.86432,2.43033
6.87191,2.4202
6.87949,2.4239
6.88708,2.44055
6.89466,2.44695
6.90225,2.47475
6.90983,2.4622
6.91742,2.45885
6.925,2.47833
6.93258,2.48373
6.94017,2.47498
6.94775,2.46268
6.95534,2.48678
6.96292,2.4519
6.97051,2.46993
6.97809,2.46643
6.98568,2.45338
6.99326,2.43065
7.00085,2.43588
7.00843,2.42433
7.01602,2.4295
7.0236,2.43468
7.03119,2.41528
7.03877,2.35315
7.04636,2.38613
7.05394,2.35748
7.06153,2.329
7.06911,2.32788
7.0767,2.30733
7.08428,2.31105
7.09187,2.272
7.09945,2.26885
7.10704,2.2511
7.11462,2.21753
7.12221,2.24385
7.12979,2.18863
7.13738,2.19225
7.14496,2.1288
7.15255,2.13703
7.16013,2.08923
7.16772,2.0606
7.1753,2.0278
7.18289,2.03823
7.19047,1.99793
7.19806,1.9641
7.20564,1.94635
7.21323,1.8444
7.22081,1.92153
7.2284,1.85695
7.23598,1.83668
7.24357,1.86238
7.25115,1.79923
7.25873,1.74928
7.26632,1.7569
7.2739,1.76093
7.28149,1.68368
7.28907,1.74388
7.29666,1.62483
7.30424,1.60583
7.31183,1.66143
7.31941,1.68638
7.327,1.59963
7.33458,1.66493
7.34217,1.63753
7.34975,1.66405
7.35734,1.53655
7.36492,1.5908
7.37251,1.67333
7.38009,1.5785
7.38768,1.60905
7.39526,1.55128
7.40285,1.61568
7.41043,1.65928
7.41802,1.58018
7.4256,1.60388
7.43319,1.64258
7.44077,1.5139
7.44836,1.59638
7.45594,1.61988
7.46353,1.62975
7.47111,1.54728
7.4787,1.6398
7.48628,1.65935
7.49387,1.60133
7.50145,1.65343
7.50904,1.66515
7.51662,1.60095
7.52421,1.63273
7.53179,1.63373
7.53938,1.60115
7.54696,1.62193
7.55455,1.6443
7.56213,1.64378
7.56972,1.63993
7.5773,1.55578
7.58488,1.6424
7.59247,1.70053
7.60005,1.633
7.60764,1.60518
7.61522,1.6281
7.62281,1.52015
7.63039,1.63988
7.63798,1.61093
7.64556,1.53373
7.65315,1.6428
7.66073,1.59815
7.66832,1.6217
7.6759,1.59113
7.68349,1.6189
7.69107,1.61838
7.69866,1.53405
7.70624,1.5365
7.71383,1.48928
7.72141,1.60678
7.729,1.52218
7.73658,1.57868
7.74417,1.48943
7.75175,1.49718
7.75934,1.5383
7.76692,1.55533
7.77451,1.45988
7.78209,1.46905
7.78968,1.45598
7.79726,1.53675
7.80485,1.511
7.81243,1.3976
7.82002,1.332
7.8276,1.44675
7.83519,1.41948
7.84277,1.3737
7.85036,1.274
7.85794,1.32748
7.86553,1.34375
7.87311,1.29935
7.8807,1.25358
7.88828,1.36425
7.89587,1.3471
7.90345,1.21163
7.91104,1.2227
7.91862,1.29243
7.9262,1.26458
7.93379,1.20603
7.94137,1.23388
7.94896,1.18918
7.95654,1.13994
7.96413,1.1032
7.97171,1.21743
7.9793,1.27065
7.98688,1.07841
7.99447,1.14745
8.00205,1.24993
8.00964,1.19426
8.01722,1.159
8.02481,1.09719
8.03239,1.05918
8.03998,1.14608
8.04756,1.14387
8.05515,1.17868
8.06273,1.1835
8.07032,1.2289
8.0779,1.2007
8.08549,1.17945
8.09307,1.23668
8.10066,1.14776
8.10824,1.15888
8.11583,1.1301
8.12341,1.10319
8.131,1.10162
8.13858,1.01229
8.14617,1.14941
8.15375,1.16938
8.16134,1.05317
8.16892,1.17985
8.17651,1.24298
8.18409,1.2273
8.19168,1.20528
8.19926,1.18113
8.20685,1.15136
8.21443,1.12238
8.22202,1.08535
8.2296,1.1492
8.23719,1.0993
8.24477,1.0321
8.25235,1.09235
8.25994,1.06668
8.26752,1.18388
8.27511,1.21163
8.28269,1.14941
8.29028,1.0979
8.29786,1.02193
8.30545,0.99037
8.31303,0.97999
8.32062,1.1182
8.3282,1.0773
8.33579,1.00954
8.34337,1.08285
8.35096,0.97999
8.35854,0.92469
8.36613,0.98856
8.37371,1.08165
8.3813,1.09818
8.38888,0.92456
8.39647,1.02739
8.40405,0.90887
8.41164,1.0146
8.41922,1.0053
8.42681,1.01672
8.43439,0.9454
8.44198,1.02795
8.44956,1.11938
8.45715,1.05938
8.46473,0.99281
8.47232,1.01595
8.4799,0.8662
8.48749,1.03544
8.49507,0.88908
8.50266,0.96433
8.51024,0.98866
8.51783,0.99337
8.52541,1.02935
8.533,0.8607
8.54058,0.83756
8.54817,0.93429
8.55575,0.9582
8.56334,0.89027
8.57092,0.88464
8.5785,0.83986
8.58609,0.90581
8.59367,0.7966
8.60126,1.04077
8.60884,0.90672
8.61643,0.96138
8.62401,0.90138
8.6316,0.96859
8.63918,1.03544
8.64677,0.96964
8.65435,0.83361
8.66194,0.71433
8.66952,0.95046
8.67711,0.83118
8.68469,0.97357
8.69228,0.8554
8.69986,0.9181
8.70745,0.83585
8.71503,0.8554
8.72262,0.93066
8.7302,0.73808
8.73779,0.58756
8.74537,0.75087
8.75296,0.70289
8.76054,0.85035
8.76813,0.80633
8.77571,0.88464
8.7833,0.77509
8.79088,0.84285
8.79847,0.98636
8.80605,0.66282
8.81364,0.58056
8.82122,0.73107
8.82881,0.70155
8.83639,0.82612
8.84398,0.82111
8.85156,0.78653
8.85915,0.86485
8.86673,0.87214
8.87432,0.73637
8.8819,0.67031
8.88949,0.85035
8.89707,0.7119
8.90465,0.77509
8.91224,0.61928
8.91982,0.62764
8.92741,0.77509
8.93499,0.79884
8.94258,0.57083
8.95016,0.5198
8.95775,0.73107
8.96533,0.71128
8.97292,0.75311
8.9805,0.69897
8.98809,0.73856
8.99567,0.71433
9.00326,0.53653
9.01084,0.6831
9.01843,0.62458
9.02601,0.70684
9.0336,0.89437
9.04118,0.75087
9.04877,0.75087
9.05635,0.77404
9.06394,0.7761
9.07152,0.77815
9.07911,0.75836
9.08669,0.74781
9.09428,0.70289
9.10186,0.81382
9.10945,0.76536
9.11703,0.67031
9.12462,0.81912
9.1322,0.8741
9.13979,0.79183
9.14737,0.75087
9.15496,0.74781
9.16254,0.72134
9.17013,0.79183
9.17771,0.7821
9.1853,0.73856
9.19288,0.77204
9.20047,0.81912
9.20805,0.49557
9.21564,0.89699
9.22322,0.69454
9.23081,0.83056
9.23839,0.85784
9.24597,0.7553
9.25356,0.81382
9.26114,0.76231
9.26873,0.80633
9.27631,0.73107
9.2839,0.80939
9.29148,0.92166
9.29907,0.71877
9.30665,0.88493
9.31424,0.58361
9.32182,0.60035
9.32941,0.78959
9.33699,0.72577
9.34458,0.96019
9.35216,0.66616
9.35975,0.5198
9.36733,0.55103
9.37492,0.56382
9.3825,0.80939
9.39009,0.58361
9.39767,0.64437
9.40526,0.72577
9.41284,0.87015
9.42043,0.92285
9.42801,0.87353
9.4356,0.80238
9.44318,0.78959
9.45077,0.86179
9.45835,0.67031
9.46594,0.83361
9.47352,0.61928
9.48111,0.72577
