KEV,INTENSITY
0.383053,4.173546
0.390564,4.124085
0.398075,4.071623
0.405586,4.019708
0.413097,3.968331
0.420607,3.918977
0.428118,3.870331
0.435629,3.8232
0.44314,3.774915
0.450651,3.730746
0.458162,3.683669
0.465672,3.636577
0.473183,3.5941
0.480694,3.553846
0.488205,3.511723
0.495716,3.472654
0.503227,3.433154
0.510738,3.396808
0.518248,3.360215
0.525759,3.324485
0.53327,3.293462
0.540781,3.2558
0.548292,3.222515
0.555803,3.194377
0.563313,3.164892
0.570824,3.128308
0.578335,3.116769
0.585846,3.078138
0.593357,3.057454
0.600868,3.025762
0.608379,3.003969
0.615889,2.981092
0.6234,2.964362
0.630911,2.943692
0.638422,2.924569
0.645933,2.903877
0.653444,2.882715
0.660954,2.864731
0.668465,2.856485
0.675976,2.830915
0.683487,2.810531
0.690998,2.792938
0.698509,2.781338
0.70602,2.762869
0.71353,2.737838
0.721041,2.738269
0.728552,2.719869
0.736063,2.716423
0.743574,2.686138
0.751085,2.677962
0.758595,2.651454
0.766106,2.659423
0.773617,2.655669
0.781128,2.610754
0.788639,2.619515
0.79615,2.610223
0.803661,2.591992
0.811171,2.571762
0.818682,2.559731
0.826193,2.549785
0.833704,2.527085
0.841215,2.507354
0.848726,2.496908
0.856236,2.492654
0.863747,2.471408
0.871258,2.468523
0.878769,2.439277
0.88628,2.444423
0.893791,2.421262
0.901302,2.399415
0.908812,2.398038
0.916323,2.385785
0.923834,2.367677
0.931345,2.376538
0.938856,2.364638
0.946367,2.3335
0.953877,2.324
0.961388,2.314846
0.968899,2.296538
0.97641,2.278262
0.983921,2.269685
0.991432,2.261385
0.998943,2.242662
1.006453,2.244515
1.013964,2.230708
1.021475,2.211777
1.028986,2.196715
1.036497,2.188408
1.044008,2.184708
1.051518,2.173569
1.059029,2.140692
1.06654,2.132915
1.074051,2.149662
1.081562,2.125423
1.089073,2.118023
1.096584,2.108062
1.104094,2.098185
1.111605,2.086838
1.119116,2.087762
1.126627,2.065792
1.134138,2.057446
1.141649,2.057885
1.149159,2.054669
1.15667,2.024092
1.164181,2.023131
1.171692,2.017054
1.179203,1.996854
1.186714,1.997669
1.194225,1.986808
1.201735,1.979554
1.209246,1.972246
1.216757,1.967192
1.224268,1.980515
1.231779,1.964154
1.23929,1.961254
1.2468,1.951123
1.254311,1.954554
1.261822,1.947223
1.269333,1.952992
1.276844,1.969877
1.284355,1.932062
1.291866,1.925562
1.299376,1.908685
1.306887,1.909254
1.314398,1.918785
1.321909,1.926869
1.32942,1.912331
1.336931,1.907192
1.344441,1.906654
1.351952,1.899231
1.359463,1.904046
1.366974,1.920238
1.374485,1.912046
1.381996,1.926569
1.389507,1.913862
1.397017,1.903062
1.404528,1.898777
1.412039,1.9194
1.41955,1.901015
1.427061,1.892731
1.434572,1.902962
1.442082,1.918569
1.449593,1.905008
1.457104,1.920685
1.464615,1.913746
1.472126,1.927169
1.479637,1.916623
1.487148,1.928846
1.494658,1.9151
1.502169,1.895108
1.50968,1.901315
1.517191,1.918092
1.524702,1.920662
1.532213,1.885385
1.539723,1.888992
1.547234,1.897931
1.554745,1.894485
1.562256,1.868015
1.569767,1.8714
1.577278,1.879508
1.584789,1.860769
1.592299,1.861362
1.59981,1.840308
1.607321,1.848308
1.614832,1.871623
1.622343,1.841823
1.629854,1.851077
1.637364,1.813315
1.644875,1.814815
1.652386,1.802846
1.659897,1.831831
1.667408,1.839323
1.674919,1.819469
1.68243,1.806785
1.68994,1.785377
1.697451,1.787846
1.704962,1.788631
1.712473,1.776669
1.719984,1.792185
1.727495,1.748115
1.735005,1.7441
1.742516,1.780854
1.750027,1.748185
1.757538,1.760169
1.765049,1.747546
1.77256,1.744023
1.78007,1.740862
1.787581,1.736569
1.795092,1.740969
1.802603,1.718046
1.810114,1.713208
1.817625,1.726069
1.825136,1.735546
1.832646,1.695946
1.840157,1.696362
1.847668,1.697508
1.855179,1.6764
1.86269,1.643062
1.870201,1.666592
1.877711,1.670677
1.885222,1.646085
1.892733,1.684985
1.900244,1.628492
1.907755,1.565846
1.915266,1.646531
1.922777,1.615985
1.930287,1.637208
1.937798,1.622692
1.945309,1.596223
1.95282,1.594431
1.960331,1.595715
1.967842,1.606362
1.975352,1.611785
1.982863,1.551662
1.990374,1.596523
1.997885,1.585515
2.005396,1.563362
2.012907,1.5922
2.020418,1.609477
2.027928,1.582592
2.035439,1.568169
2.04295,1.583738
2.050461,1.582569
2.057972,1.568777
2.065483,1.5812
2.072993,1.600692
2.080504,1.626931
2.088015,1.6023
2.095526,1.634585
2.103037,1.649508
2.110548,1.652038
2.118059,1.688562
2.125569,1.681923
2.13308,1.705677
2.140591,1.723862
2.148102,1.732
2.155613,1.764754
2.163124,1.728277
2.170634,1.755385
2.178145,1.809946
2.185656,1.802969
2.193167,1.792938
2.200678,1.802169
2.208189,1.829723
2.2157,1.832077
2.22321,1.841023
2.230721,1.890623
2.238232,1.878038
2.245743,1.894592
2.253254,1.928708
2.260765,1.899031
2.268275,1.911023
2.275786,1.932785
2.283297,1.924523
2.290808,1.9132
2.298319,1.927269
2.30583,1.925238
2.313341,1.930585
2.320851,1.926877
2.328362,1.913069
2.335873,1.927462
2.343384,1.920554
2.350895,1.888962
2.358406,1.891323
2.365916,1.872323
2.373427,1.857077
2.380938,1.879738
2.388449,1.855177
2.39596,1.842154
2.403471,1.816108
2.410982,1.812215
2.418492,1.798585
2.426003,1.801938
2.433514,1.751754
2.441025,1.753169
2.448536,1.748954
2.456047,1.723223
2.463557,1.669669
2.471068,1.674385
2.478579,1.639285
2.48609,1.664069
2.493601,1.593685
2.501112,1.553354
2.508623,1.579438
2.516133,1.512023
2.523644,1.493308
2.531155,1.470538
2.538666,1.463223
2.546177,1.434538
2.553688,1.428569
2.561198,1.384085
2.568709,1.423969
2.57622,1.382985
2.583731,1.299105
2.591242,1.275838
2.598753,1.326354
2.606264,1.316408
2.613774,1.300777
2.621285,1.289946
2.628796,1.298723
2.636307,1.235046
2.643818,1.247946
2.651329,1.263254
2.658839,1.258815
2.66635,1.229315
2.673861,1.228846
2.681372,1.214608
2.688883,1.2584
2.696394,1.274046
2.703905,1.234165
2.711415,1.245231
2.718926,1.236468
2.726437,1.25238
2.733948,1.187611
2.741459,1.279038
2.74897,1.226708
2.75648,1.302792
2.763991,1.257931
2.771502,1.244177
2.779013,1.276862
2.786524,1.301503
2.794035,1.284177
2.801546,1.288146
2.809056,1.290362
2.816567,1.310954
2.824078,1.352954
2.831589,1.341692
2.8391,1.399515
2.846611,1.400215
2.854121,1.377123
2.861632,1.402662
2.869143,1.4368
2.876654,1.410546
2.884165,1.431877
2.891676,1.452862
2.899187,1.424
2.906697,1.450815
2.914208,1.485569
2.921719,1.4719
2.92923,1.547631
2.936741,1.562569
2.944252,1.570977
2.951762,1.626215
2.959273,1.616992
2.966784,1.6378
2.974295,1.684992
2.981806,1.698154
2.989317,1.731662
2.996828,1.764223
3.004338,1.795831
3.011849,1.828485
3.01936,1.841969
3.026871,1.878023
3.034382,1.915846
3.041893,1.962354
3.049403,1.965638
3.056914,2.014677
3.064425,2.066192
3.071936,2.084892
3.079447,2.117069
3.086958,2.139962
3.094469,2.204277
3.101979,2.219862
3.10949,2.251562
3.117001,2.290892
3.124512,2.323646
3.132023,2.350677
3.139534,2.376785
3.147044,2.414423
3.154555,2.4371
3.162066,2.4737
3.169577,2.4951
3.177088,2.516515
3.184599,2.548885
3.19211,2.563815
3.19962,2.587523
3.207131,2.628769
3.214642,2.651154
3.222153,2.649277
3.229664,2.678877
3.237175,2.688454
3.244685,2.704677
3.252196,2.719446
3.259707,2.730869
3.267218,2.743808
3.274729,2.761392
3.28224,2.752946
3.289751,2.768846
3.297261,2.770631
3.304772,2.777477
3.312283,2.771408
3.319794,2.772754
3.327305,2.779054
3.334816,2.775123
3.342326,2.776069
3.349837,2.762731
3.357348,2.753215
3.364859,2.744223
3.37237,2.735585
3.379881,2.740192
3.387392,2.720923
3.394902,2.703554
3.402413,2.691508
3.409924,2.668369
3.417435,2.658123
3.424946,2.636085
3.432457,2.620146
3.439967,2.595715
3.447478,2.571777
3.454989,2.556469
3.4625,2.531662
3.470011,2.513131
3.477522,2.495869
3.485033,2.449038
3.492543,2.445008
3.500054,2.413185
3.507565,2.389554
3.515076,2.377269
3.522587,2.359262
3.530098,2.340138
3.537608,2.310408
3.545119,2.311185
3.55263,2.286454
3.560141,2.273408
3.567652,2.224954
3.575163,2.195262
3.582674,2.200608
3.590184,2.190762
3.597695,2.157254
3.605206,2.132046
3.612717,2.124492
3.620228,2.100262
3.627739,2.087115
3.635249,2.073008
3.64276,2.056015
3.650271,2.029623
3.657782,2.0103
3.665293,2.004354
3.672804,1.975969
3.680315,1.949185
3.687825,1.926892
3.695336,1.895685
3.702847,1.886546
3.710358,1.871577
3.717869,1.811754
3.72538,1.775208
3.73289,1.742308
3.740401,1.715462
3.747912,1.724677
3.755423,1.669692
3.762934,1.655262
3.770445,1.625531
3.777956,1.558854
3.785466,1.557285
3.792977,1.506746
3.800488,1.442877
3.807999,1.406692
3.81551,1.393338
3.823021,1.363431
3.830531,1.327315
3.838042,1.293254
3.845553,1.326523
3.853064,1.247908
3.860575,1.201115
3.868086,1.225808
3.875597,1.146757
3.883107,1.121075
3.890618,1.055635
3.898129,1.108015
3.90564,1.025501
3.913151,1.059492
3.920662,1.024454
3.928172,1.048972
3.935683,1.032507
3.943194,1.060665
3.950705,1.016257
3.958216,0.963676
3.965727,0.937479
3.973238,0.986402
3.980748,0.962125
3.988259,0.880502
3.99577,0.988981
4.003281,0.938543
4.010792,0.951955
4.018303,0.892105
4.025813,0.880815
4.033324,0.970901
4.040835,0.872938
4.048346,0.938078
4.055857,0.902762
4.063368,0.982693
4.070879,0.917888
4.078389,0.971732
4.0859,0.956221
4.093411,0.967522
4.100922,0.933309
4.108433,0.980897
4.115944,0.922093
4.123454,0.801687
4.130965,0.974498
4.138476,1.005836
4.145987,0.972942
4.153498,1.03669
4.161009,0.911202
4.16852,0.930671
4.17603,0.95309
4.183541,0.992945
4.191052,0.987373
4.198563,0.899365
4.206074,1.010164
4.213585,0.894393
4.221095,0.958096
4.228606,0.916349
4.236117,0.950228
4.243628,0.924742
4.251139,0.940709
4.25865,0.991364
4.266161,0.996815
4.273671,0.95767
4.281182,0.987672
4.288693,0.963835
4.296204,1.038368
4.303715,0.991647
4.311226,1.037452
4.318736,1.044236
4.326247,1.014052
4.333758,0.966555
4.341269,1.05302
4.34878,1.004357
4.356291,0.957349
4.363802,1.081738
4.371312,1.022855
4.378823,1.131694
4.386334,1.166446
4.393845,1.082238
4.401356,1.155718
4.408867,1.113298
4.416377,1.101753
4.423888,1.142584
4.431399,1.134509
4.43891,1.170879
4.446421,1.113802
4.453932,1.130331
4.461443,1.161423
4.468953,1.168249
4.476464,1.137284
4.483975,1.186762
4.491486,1.158176
4.498997,1.217362
4.506508,1.189295
4.514018,1.133487
4.521529,1.190346
4.52904,1.120167
4.536551,1.177392
4.544062,1.177472
4.551573,1.171695
4.559084,1.162031
4.566594,1.158864
4.574105,1.088626
4.581616,1.13953
4.589127,1.076217
4.596638,1.096474
4.604149,1.009165
4.611659,1.022506
4.61917,1.020174
4.626681,1.046363
4.634192,1.013832
4.641703,1.029361
4.649214,0.976907
4.656725,1.026935
4.664235,0.91409
4.671746,1.051865
4.679257,0.974162
4.686768,0.860079
4.694279,0.910436
4.70179,0.859209
4.7093,0.860415
4.716811,0.808385
4.724322,0.81596
4.731833,0.823535
4.739344,0.704848
4.746855,0.807772
4.754366,0.893107
4.761876,0.785227
4.769387,0.710511
4.776898,0.855216
4.784409,0.785464
4.79192,0.755002
4.799431,0.815417
4.806941,0.79915
4.814452,0.797735
4.821963,0.818231
4.829474,0.810924
4.836985,0.741926
4.844496,0.695293
4.852007,0.834498
4.859517,0.813919
4.867028,0.763399
4.874539,0.767638
4.88205,0.776195
4.889561,0.740857
4.897072,0.793459
4.904582,0.864542
4.912093,0.757156
4.919604,0.749118
4.927115,0.803894
4.934626,0.858802
4.942137,0.760759
4.949648,0.778426
4.957158,0.800312
4.964669,0.756219
4.97218,0.721398
4.979691,0.742577
4.987202,0.829039
4.994713,0.766861
5.002223,0.822164
5.009734,0.849535
5.017245,0.686475
5.024756,0.817431
5.032267,0.768337
5.039778,0.719242
5.047289,0.779566
5.054799,0.842846
5.06231,0.729815
5.069821,0.76231
5.077332,0.739518
5.084843,0.751673
5.092354,0.763862
5.099864,0.679709
5.107375,0.795669
5.114886,0.77464
5.122397,0.780596
5.129908,0.765495
5.137419,0.748591
5.14493,0.731686
5.15244,0.797925
5.159951,0.593976
5.167462,0.721338
5.174973,0.814183
5.182484,0.763936
5.189995,0.798818
5.197505,0.7068
5.205016,0.749883
5.212527,0.730482
5.220038,0.693781
5.227549,0.675085
5.23506,0.698329
5.24257,0.647055
5.250081,0.749517
5.257592,0.769013
5.265103,0.630826
5.272614,0.68769
5.280125,0.708542
5.287636,0.779638
5.295146,0.743612
5.302657,0.756221
5.310168,0.643008
5.317679,0.751065
5.32519,0.744581
5.332701,0.66669
5.340211,0.660073
5.347722,0.772335
5.355233,0.673618
5.362744,0.620378
5.370255,0.624312
5.377766,0.763672
5.385277,0.737604
5.392787,0.711535
5.400298,0.676114
5.407809,0.622008
5.41532,0.587009
5.422831,0.602142
5.430342,0.617274
5.437852,0.582046
5.445363,0.679295
5.452874,0.734689
5.460385,0.57285
5.467896,0.521239
5.475407,0.652618
5.482918,0.639601
5.490428,0.669684
5.497939,0.624778
5.50545,0.626217
5.512961,0.582461
5.520472,0.641378
5.527983,0.699872
5.535493,0.659142
5.543004,0.618412
5.550515,0.626892
5.558026,0.646379
5.565537,0.487532
5.573048,0.571586
5.580559,0.653982
5.588069,0.654248
5.59558,0.778
5.603091,0.541032
5.610602,0.608741
5.618113,0.55185
5.625624,0.6298
5.633134,0.707749
5.640645,0.591131
5.648156,0.624838
5.655667,0.671988
5.663178,0.531273
5.670689,0.698931
5.6782,0.716411
5.68571,0.695411
5.693221,0.604676
5.700732,0.635138
5.708243,0.675074
5.715754,0.645164
5.723265,0.617281
5.730775,0.625528
5.738286,0.613605
5.745797,0.601682
5.753308,0.532903
5.760819,0.671988
5.76833,0.628098
5.775841,0.607522
5.783351,0.628098
5.790862,0.654322
5.798373,0.646942
5.805884,0.636079
5.813395,0.683918
5.820906,0.665694
5.828416,0.64747
5.835927,0.680707
5.843438,0.713943
5.850949,0.666164
5.85846,0.713151
5.865971,0.597309
5.873482,0.680583
5.880992,0.661955
5.888503,0.705637
5.896014,0.667205
5.903525,0.688905
5.911036,0.726023
5.918547,0.744908
5.926057,0.690875
5.933568,0.567448
5.941079,0.772848
5.94859,0.697568
5.956101,0.791308
5.963612,0.701849
5.971123,0.68005
5.978633,0.732638
5.986144,0.743012
5.993655,0.849876
6.001166,0.727492
6.008677,0.664534
6.016188,0.805101
6.023698,0.73067
6.031209,0.741347
6.03872,0.752023
6.046231,0.715998
6.053742,0.723717
6.061253,0.862054
6.068764,0.829355
6.076274,0.745485
6.083785,0.800375
6.091296,0.804575
6.098807,0.823107
6.106318,0.803137
6.113829,0.859749
6.121339,0.815742
6.12885,0.751348
6.136361,0.838898
6.143872,0.913516
6.151383,0.740619
6.158894,0.877918
6.166405,1.005741
6.173915,0.902008
6.181426,0.914882
6.188937,0.943105
6.196448,0.950342
6.203959,0.954096
6.21147,0.943437
6.21898,0.982819
6.226491,1.011308
6.234002,1.04258
6.241513,0.976194
6.249024,1.004738
6.256535,1.004805
6.264046,1.028883
6.271556,1.023943
6.279067,1.067065
6.286578,1.094946
6.294089,1.146188
6.3016,1.157118
6.309111,1.194557
6.316621,1.202138
6.324132,1.180642
6.331643,1.195431
6.339154,1.154665
6.346665,1.149255
6.354176,1.192408
6.361687,1.202162
6.369197,1.208877
6.376708,1.193203
6.384219,1.217149
6.39173,1.230015
6.399241,1.268154
6.406752,1.249615
6.414262,1.205126
6.421773,1.210088
6.429284,1.283823
6.436795,1.254377
6.444306,1.275654
6.451817,1.254315
6.459328,1.220338
6.466838,1.2383
6.474349,1.263438
6.48186,1.213315
6.489371,1.338308
6.496882,1.270308
6.504393,1.226523
6.511903,1.243162
6.519414,1.189453
6.526925,1.218123
6.534436,1.261446
6.541947,1.220615
6.549458,1.234946
6.556969,1.257123
6.564479,1.288915
6.57199,1.276185
6.579501,1.285508
6.587012,1.308938
6.594523,1.286215
6.602034,1.336185
6.609544,1.351538
6.617055,1.334831
6.624566,1.347685
6.632077,1.344138
6.639588,1.357838
6.647099,1.409892
6.65461,1.430877
6.66212,1.483946
6.669631,1.477823
6.677142,1.460177
6.684653,1.500031
6.692164,1.5274
6.699675,1.515485
6.707185,1.561892
6.714696,1.5712
6.722207,1.571715
6.729718,1.608331
6.737229,1.597392
6.74474,1.619946
6.752251,1.655285
6.759761,1.695015
6.767272,1.676131
6.774783,1.717446
6.782294,1.744223
6.789805,1.778477
6.797316,1.764608
6.804826,1.784538
6.812337,1.797731
6.819848,1.820154
6.827359,1.809885
6.83487,1.826846
6.842381,1.845062
6.849892,1.827754
6.857402,1.868523
6.864913,1.880662
6.872424,1.879523
6.879935,1.870854
6.887446,1.889023
6.894957,1.929023
6.902467,1.922431
6.909978,1.925885
6.917489,1.897308
6.925,1.937731
6.932511,1.922338
6.940022,1.893069
6.947533,1.883562
6.955043,1.904708
6.962554,1.907154
6.970065,1.885069
6.977576,1.892577
6.985087,1.880031
6.992598,1.885469
7.000108,1.870538
7.007619,1.855931
7.01513,1.846192
7.022641,1.825108
7.030152,1.813031
7.037663,1.779223
7.045174,1.8055
7.052684,1.747785
7.060195,1.767062
7.067706,1.724892
7.075217,1.698846
7.082728,1.723285
7.090239,1.689454
7.097749,1.647992
7.10526,1.643592
7.112771,1.583977
7.120282,1.568315
7.127793,1.520238
7.135304,1.512838
7.142815,1.537885
7.150325,1.488092
7.157836,1.437354
7.165347,1.452362
7.172858,1.422008
7.180369,1.380377
7.18788,1.369177
7.19539,1.330085
7.202901,1.314046
7.210412,1.303508
7.217923,1.289062
7.225434,1.269346
7.232945,1.218723
7.240456,1.269685
7.247966,1.219677
7.255477,1.220538
7.262988,1.233562
7.270499,1.244285
7.27801,1.207062
7.285521,1.207869
7.293031,1.293246
7.300542,1.182807
7.308053,1.246577
7.315564,1.266769
7.323075,1.267038
7.330586,1.254362
7.338097,1.224985
7.345607,1.215768
7.353118,1.253838
7.360629,1.310208
7.36814,1.271069
7.375651,1.266438
7.383162,1.288238
7.390672,1.343862
7.398183,1.367892
7.405694,1.3581
7.413205,1.379838
7.420716,1.4163
7.428227,1.371931
7.435738,1.386562
7.443248,1.389923
7.450759,1.415277
7.45827,1.431385
7.465781,1.448546
7.473292,1.446692
7.480803,1.416662
7.488313,1.455685
7.495824,1.513785
7.503335,1.454738
7.510846,1.485623
7.518357,1.494077
7.525868,1.460377
7.533379,1.486946
7.540889,1.497731
7.5484,1.478615
7.555911,1.509838
7.563422,1.541715
7.570933,1.535054
7.578444,1.504277
7.585954,1.501762
7.593465,1.496577
7.600976,1.518608
7.608487,1.533638
7.615998,1.499608
7.623509,1.498992
7.63102,1.498846
7.63853,1.503585
7.646041,1.499231
7.653552,1.510277
7.661063,1.452069
7.668574,1.490492
7.676085,1.439123
7.683595,1.451631
7.691106,1.487377
7.698617,1.495831
7.706128,1.440346
7.713639,1.467754
7.72115,1.432354
7.728661,1.416454
7.736171,1.426292
7.743682,1.399869
7.751193,1.368038
7.758704,1.364931
7.766215,1.3844
7.773726,1.372392
7.781236,1.358023
7.788747,1.279285
7.796258,1.334277
7.803769,1.326631
7.81128,1.280915
7.818791,1.287277
7.826302,1.267477
7.833812,1.190342
7.841323,1.192146
7.848834,1.215892
7.856345,1.100767
7.863856,1.138845
7.871367,1.06211
7.878877,1.170377
7.886388,1.133694
7.893899,1.073711
7.90141,1.043718
7.908921,1.090689
7.916432,1.076866
7.923943,1.109136
7.931453,1.085839
7.938964,1.057952
7.946475,1.105952
7.953986,1.031469
7.961497,1.032305
7.969008,0.972905
7.976518,1.074694
7.984029,1.040843
7.99154,1.077105
7.999051,1.068603
8.006562,1.032018
8.014073,1.012944
8.021584,0.965822
8.029094,0.962066
8.036605,1.014963
8.044116,0.964662
8.051627,0.964042
8.059138,0.974411
8.066649,0.983601
8.074159,1.040892
8.08167,0.996292
8.089181,0.922165
8.096692,0.982665
8.104203,0.970108
8.111714,0.93012
8.119225,0.982988
8.126735,0.931673
8.134246,1.032295
8.141757,0.941558
8.149268,0.860702
8.156779,1.006675
8.16429,0.981344
8.1718,1.039759
8.179311,0.982282
8.186822,0.981632
8.194333,0.924205
8.201844,0.963078
8.209355,0.937795
8.216866,0.850578
8.224376,0.830842
8.231887,0.929291
8.239398,0.93968
8.246909,0.963432
8.25442,0.982048
8.261931,1.030272
8.269441,0.893336
8.276952,0.924785
8.284463,0.985974
8.291974,0.888317
8.299485,0.914079
8.306996,0.959416
8.314507,0.945594
8.322017,0.99063
8.329528,0.856655
8.337039,0.863829
8.34455,0.911025
8.352061,0.898842
8.359572,0.878177
