KEV,INTENSITY
0.39564,4.83948
0.40339,4.81196
0.41115,4.77878
0.41891,4.74597
0.42667,4.71342
0.43442,4.68133
0.44218,4.64885
0.44994,4.61805
0.4577,4.5842
0.46545,4.55519
0.47321,4.52162
0.48097,4.49007
0.48873,4.45865
0.49648,4.42645
0.50424,4.39353
0.512,4.36241
0.51976,4.33022
0.52752,4.30433
0.53527,4.26911
0.54303,4.23801
0.55079,4.20636
0.55855,4.17075
0.5663,4.13894
0.57406,4.11344
0.58182,4.08205
0.58958,4.05752
0.59733,4.02483
0.60509,3.99712
0.61285,3.96659
0.62061,3.93693
0.62836,3.90555
0.63612,3.87967
0.64388,3.85417
0.65164,3.83214
0.65939,3.80387
0.66715,3.77839
0.67491,3.75002
0.68267,3.71631
0.69042,3.69558
0.69818,3.68331
0.70594,3.66061
0.7137,3.64046
0.72145,3.62014
0.72921,3.60137
0.73697,3.5851
0.74473,3.56833
0.75248,3.54829
0.76024,3.52481
0.768,3.5023
0.77576,3.48175
0.78352,3.46446
0.79127,3.44935
0.79903,3.43317
0.80679,3.41302
0.81455,3.39584
0.8223,3.3825
0.83006,3.36035
0.83782,3.34468
0.84558,3.33024
0.85333,3.31334
0.86109,3.29937
0.86885,3.28313
0.87661,3.265
0.88436,3.25167
0.89212,3.23456
0.89988,3.22467
0.90764,3.21023
0.91539,3.19511
0.92315,3.18479
0.93091,3.17374
0.93867,3.15904
0.94642,3.14519
0.95418,3.13613
0.96194,3.11918
0.9697,3.10838
0.97745,3.09497
0.98521,3.08644
0.99297,3.07825
1.00073,3.06365
1.00848,3.05217
1.01624,3.03959
1.024,3.03049
1.03176,3.01774
1.03952,3.01189
1.04727,3.00331
1.05503,2.99072
1.06279,2.97989
1.07055,2.97197
1.0783,2.96063
1.08606,2.9489
1.09382,2.94344
1.10158,2.92984
1.10933,2.92058
1.11709,2.91577
1.12485,2.90641
1.13261,2.89428
1.14036,2.88393
1.14812,2.87333
1.15588,2.86172
1.16364,2.85407
1.17139,2.84865
1.17915,2.83975
1.18691,2.82293
1.19467,2.81723
1.20242,2.80385
1.21018,2.79304
1.21794,2.78792
1.2257,2.78072
1.23345,2.76953
1.24121,2.76126
1.24897,2.74819
1.25673,2.7379
1.26448,2.72897
1.27224,2.71713
1.28,2.70805
1.28776,2.69919
1.29552,2.68434
1.30327,2.67193
1.31103,2.67328
1.31879,2.66071
1.32655,2.65096
1.3343,2.64504
1.34206,2.63642
1.34982,2.62491
1.35758,2.61881
1.36533,2.60198
1.37309,2.60037
1.38085,2.59513
1.38861,2.57842
1.39636,2.5759
1.40412,2.57596
1.41188,2.55664
1.41964,2.55539
1.42739,2.54085
1.43515,2.52937
1.44291,2.52982
1.45067,2.51788
1.45842,2.51037
1.46618,2.50929
1.47394,2.50539
1.4817,2.4942
1.48945,2.48651
1.49721,2.47906
1.50497,2.47534
1.51273,2.469
1.52048,2.46286
1.52824,2.44848
1.536,2.44835
1.54376,2.45039
1.55152,2.43875
1.55927,2.43917
1.56703,2.42957
1.57479,2.40977
1.58255,2.41734
1.5903,2.40669
1.59806,2.39889
1.60582,2.39553
1.61358,2.39358
1.62133,2.38737
1.62909,2.38044
1.63685,2.35413
1.64461,2.3588
1.65236,2.36229
1.66012,2.36809
1.66788,2.35535
1.67564,2.36449
1.68339,2.36355
1.69115,2.36562
1.69891,2.36977
1.70667,2.36262
1.71442,2.36272
1.72218,2.35876
1.72994,2.35132
1.7377,2.35212
1.74545,2.34953
1.75321,2.35011
1.76097,2.34823
1.76873,2.34322
1.77648,2.32807
1.78424,2.32976
1.792,2.33389
1.79976,2.31871
1.80752,2.32341
1.81527,2.31825
1.82303,2.31401
1.83079,2.30992
1.83855,2.30741
1.8463,2.29495
1.85406,2.29266
1.86182,2.28288
1.86958,2.27503
1.87733,2.26976
1.88509,2.27074
1.89285,2.26061
1.90061,2.24512
1.90836,2.24495
1.91612,2.24658
1.92388,2.23596
1.93164,2.22739
1.93939,2.21565
1.94715,2.20167
1.95491,2.20226
1.96267,2.19258
1.97042,2.17788
1.97818,2.17252
1.98594,2.16368
1.9937,2.1639
2.00145,2.14287
2.00921,2.12741
2.01697,2.13552
2.02473,2.11921
2.03248,2.12312
2.04024,2.09868
2.048,2.09563
2.05576,2.08467
2.06352,2.07226
2.07127,2.06068
2.07903,2.07139
2.08679,2.06312
2.09455,2.05022
2.1023,2.03892
2.11006,2.03153
2.11782,2.0304
2.12558,2.01844
2.13333,2.01877
2.14109,2.02384
2.14885,2.01196
2.15661,2.01169
2.16436,1.99673
2.17212,1.9997
2.17988,1.98179
2.18764,1.97876
2.19539,1.96574
2.20315,1.98621
2.21091,1.96183
2.21867,1.96651
2.22642,1.97451
2.23418,1.96008
2.24194,1.94801
2.2497,1.96314
2.25745,1.95926
2.26521,1.94985
2.27297,1.9492
2.28073,1.95645
2.28848,1.95598
2.29624,1.94802
2.304,1.95374
2.31176,1.93863
2.31952,1.93181
2.32727,1.92883
2.33503,1.94285
2.34279,1.93415
2.35055,1.9274
2.3583,1.90727
2.36606,1.92934
2.37382,1.92067
2.38158,1.91503
2.38933,1.91694
2.39709,1.91052
2.40485,1.90485
2.41261,1.89137
2.42036,1.89355
2.42812,1.89852
2.43588,1.90292
2.44364,1.88419
2.45139,1.89109
2.45915,1.88793
2.46691,1.88805
2.47467,1.87989
2.48242,1.88042
2.49018,1.86216
2.49794,1.86436
2.5057,1.85851
2.51345,1.87625
2.52121,1.85647
2.52897,1.84818
2.53673,1.82437
2.54448,1.82079
2.55224,1.82632
2.56,1.83435
2.56776,1.79756
2.57552,1.81212
2.58327,1.81601
2.59103,1.78222
2.59879,1.79143
2.60655,1.78665
2.6143,1.76357
2.62206,1.77758
2.62982,1.77557
2.63758,1.77514
2.64533,1.74703
2.65309,1.73128
2.66085,1.7243
2.66861,1.7345
2.67636,1.73613
2.68412,1.72843
2.69188,1.73002
2.69964,1.71934
2.70739,1.71511
2.71515,1.71864
2.72291,1.72078
2.73067,1.69617
2.73842,1.70947
2.74618,1.70997
2.75394,1.68218
2.7617,1.69771
2.76945,1.7122
2.77721,1.69969
2.78497,1.69772
2.79273,1.67871
2.80048,1.69727
2.80824,1.66588
2.816,1.67642
2.82376,1.68042
2.83152,1.66126
2.83927,1.67767
2.84703,1.66113
2.85479,1.67583
2.86255,1.66418
2.8703,1.66657
2.87806,1.65018
2.88582,1.67027
2.89358,1.66712
2.90133,1.65275
2.90909,1.65176
2.91685,1.65474
2.92461,1.66825
2.93236,1.66094
2.94012,1.65632
2.94788,1.65091
2.95564,1.66705
2.96339,1.65855
2.97115,1.68284
2.97891,1.67925
2.98667,1.67695
2.99442,1.68365
3.00218,1.70659
3.00994,1.7083
3.0177,1.70381
3.02545,1.6963
3.03321,1.70466
3.04097,1.73583
3.04873,1.74056
3.05648,1.75
3.06424,1.75167
3.072,1.75457
3.07976,1.75366
3.08752,1.77116
3.09527,1.78361
3.10303,1.77726
3.11079,1.77573
3.11855,1.79463
3.1263,1.81385
3.13406,1.81137
3.14182,1.82668
3.14958,1.83479
3.15733,1.82974
3.16509,1.85327
3.17285,1.85164
3.18061,1.86207
3.18836,1.86774
3.19612,1.87716
3.20388,1.89297
3.21164,1.90432
3.21939,1.90016
3.22715,1.9007
3.23491,1.93548
3.24267,1.92458
3.25042,1.93391
3.25818,1.96611
3.26594,1.95447
3.2737,1.95769
3.28145,1.96302
3.28921,1.97777
3.29697,1.9835
3.30473,2.00952
3.31248,2.01531
3.32024,2.02494
3.328,2.03818
3.33576,2.04173
3.34352,2.05744
3.35127,2.0753
3.35903,2.09306
3.36679,2.10034
3.37455,2.09722
3.3823,2.11067
3.39006,2.12885
3.39782,2.14819
3.40558,2.15106
3.41333,2.16833
3.42109,2.17002
3.42885,2.18689
3.43661,2.19759
3.44436,2.23233
3.45212,2.2372
3.45988,2.24556
3.46764,2.24469
3.47539,2.25927
3.48315,2.27732
3.49091,2.29505
3.49867,2.29242
3.50642,2.30372
3.51418,2.31497
3.52194,2.31486
3.5297,2.32226
3.53745,2.33237
3.54521,2.34214
3.55297,2.34589
3.56073,2.35384
3.56848,2.35885
3.57624,2.36533
3.584,2.35941
3.59176,2.35271
3.59952,2.36434
3.60727,2.37771
3.61503,2.3782
3.62279,2.38073
3.63055,2.38896
3.6383,2.39704
3.64606,2.40185
3.65382,2.41322
3.66158,2.41587
3.66933,2.42204
3.67709,2.41007
3.68485,2.40999
3.69261,2.40859
3.70036,2.40298
3.70812,2.40731
3.71588,2.40458
3.72364,2.40748
3.73139,2.39851
3.73915,2.39593
3.74691,2.38416
3.75467,2.37821
3.76242,2.3709
3.77018,2.37097
3.77794,2.36147
3.7857,2.34502
3.79345,2.344
3.80121,2.33791
3.80897,2.33084
3.81673,2.3299
3.82448,2.30776
3.83224,2.30135
3.84,2.29382
3.84776,2.28105
3.85552,2.27299
3.86327,2.26436
3.87103,2.24764
3.87879,2.24754
3.88655,2.23219
3.8943,2.21905
3.90206,2.21606
3.90982,2.21412
3.91758,2.17504
3.92533,2.17452
3.93309,2.16612
3.94085,2.1638
3.94861,2.1501
3.95636,2.13666
3.96412,2.13286
3.97188,2.12229
3.97964,2.1102
3.98739,2.08466
3.99515,2.0832
4.00291,2.08061
4.01067,2.06686
4.01842,2.04078
4.02618,2.0412
4.03394,2.04157
4.0417,2.04356
4.04945,2.02116
4.05721,2.01479
4.06497,1.99985
4.07273,1.99976
4.08048,1.98786
4.08824,1.99027
4.096,1.9828
4.10376,1.96981
4.11152,1.98126
4.11927,1.96365
4.12703,1.95745
4.13479,1.95404
4.14255,1.94773
4.1503,1.9607
4.15806,1.94935
4.16582,1.96103
4.17358,1.95621
4.18133,1.9515
4.18909,1.95616
4.19685,1.96181
4.20461,1.96802
4.21236,1.96536
4.22012,1.97684
4.22788,1.97698
4.23564,1.9805
4.24339,1.98047
4.25115,1.99474
4.25891,2.01175
4.26667,2.00161
4.27442,2.01021
4.28218,2.03241
4.28994,2.03642
4.2977,2.03454
4.30545,2.04539
4.31321,2.06288
4.32097,2.06552
4.32873,2.0807
4.33648,2.08685
4.34424,2.0963
4.352,2.10131
4.35976,2.11189
4.36752,2.10842
4.37527,2.11715
4.38303,2.13193
4.39079,2.11431
4.39855,2.15264
4.4063,2.14361
4.41406,2.15288
4.42182,2.14957
4.42958,2.17183
4.43733,2.16685
4.44509,2.16394
4.45285,2.15997
4.46061,2.16885
4.46836,2.17683
4.47612,2.16613
4.48388,2.16652
4.49164,2.17306
4.49939,2.17972
4.50715,2.15587
4.51491,2.16623
4.52267,2.16234
4.53042,2.15627
4.53818,2.1485
4.54594,2.15569
4.5537,2.14422
4.56145,2.13613
4.56921,2.13525
4.57697,2.11279
4.58473,2.11549
4.59248,2.13941
4.60024,2.11587
4.608,2.10667
4.61576,2.11708
4.62352,2.10871
4.63127,2.10323
4.63903,2.09669
4.64679,2.09929
4.65455,2.07843
4.6623,2.06639
4.67006,2.05903
4.67782,2.07522
4.68558,2.06255
4.69333,2.05261
4.70109,2.04855
4.70885,2.04012
4.71661,2.02183
4.72436,2.02113
4.73212,2.00848
4.73988,1.99818
4.74764,1.99664
4.75539,1.97869
4.76315,1.9814
4.77091,1.96692
4.77867,1.9631
4.78642,1.96432
4.79418,1.95432
4.80194,1.93016
4.8097,1.92164
4.81745,1.93278
4.82521,1.91663
4.83297,1.91293
4.84073,1.91356
4.84848,1.91378
4.85624,1.90287
4.864,1.8908
4.87176,1.8936
4.87952,1.88921
4.88727,1.87217
4.89503,1.8841
4.90279,1.87209
4.91055,1.86947
4.9183,1.87251
4.92606,1.85092
4.93382,1.87139
4.94158,1.86409
4.94933,1.85401
4.95709,1.87347
4.96485,1.85763
4.97261,1.84967
4.98036,1.86047
4.98812,1.83649
4.99588,1.84336
5.00364,1.83328
5.01139,1.8496
5.01915,1.85655
5.02691,1.86081
5.03467,1.83913
5.04242,1.82899
5.05018,1.84616
5.05794,1.85086
5.0657,1.85662
5.07345,1.85988
5.08121,1.85706
5.08897,1.84898
5.09673,1.86344
5.10448,1.86148
5.11224,1.88197
5.12,1.87358
5.12776,1.89306
5.13552,1.88194
5.14327,1.88851
5.15103,1.89977
5.15879,1.89059
5.16655,1.90381
5.1743,1.92701
5.18206,1.91126
5.18982,1.92409
5.19758,1.93512
5.20533,1.93922
5.21309,1.94823
5.22085,1.9496
5.22861,1.94679
5.23636,1.97271
5.24412,1.96873
5.25188,1.97666
5.25964,1.97542
5.26739,1.98827
5.27515,1.98199
5.28291,2.00214
5.29067,2.00341
5.29842,1.99944
5.30618,2.02537
5.31394,2.01049
5.3217,2.01902
5.32945,2.02106
5.33721,2.02489
5.34497,2.03065
5.35273,2.04392
5.36048,2.03438
5.36824,2.03544
5.376,2.0312
5.38376,2.048
5.39152,2.04838
5.39927,2.0463
5.40703,2.06272
5.41479,2.05704
5.42255,2.05741
5.4303,2.06771
5.43806,2.06027
5.44582,2.07091
5.45358,2.05737
5.46133,2.06334
5.46909,2.06576
5.47685,2.07032
5.48461,2.07508
5.49236,2.0759
5.50012,2.06431
5.50788,2.05809
5.51564,2.07887
5.52339,2.07298
5.53115,2.0746
5.53891,2.08385
5.54667,2.07297
5.55442,2.09247
5.56218,2.09004
5.56994,2.08384
5.5777,2.10315
5.58545,2.09373
5.59321,2.08834
5.60097,2.09013
5.60873,2.10002
5.61648,2.11155
5.62424,2.11316
5.632,2.10847
5.63976,2.11019
5.64752,2.10476
5.65527,2.10721
5.66303,2.13829
5.67079,2.13628
5.67855,2.14662
5.6863,2.15072
5.69406,2.16615
5.70182,2.17138
5.70958,2.19329
5.71733,2.20261
5.72509,2.20324
5.73285,2.20663
5.74061,2.22046
5.74836,2.22138
5.75612,2.23838
5.76388,2.24441
5.77164,2.24897
5.77939,2.25845
5.78715,2.26894
5.79491,2.29071
5.80267,2.288
5.81042,2.2949
5.81818,2.30735
5.82594,2.30803
5.8337,2.31364
5.84145,2.3296
5.84921,2.33999
5.85697,2.34103
5.86473,2.36259
5.87248,2.35819
5.88024,2.37642
5.888,2.38613
5.89576,2.38441
5.90352,2.3994
5.91127,2.41674
5.91903,2.41436
5.92679,2.42955
5.93455,2.44571
5.9423,2.44401
5.95006,2.46061
5.95782,2.47542
5.96558,2.4844
5.97333,2.49778
5.98109,2.50495
5.98885,2.52018
5.99661,2.53947
6.00436,2.54329
6.01212,2.55188
6.01988,2.57251
6.02764,2.58302
6.03539,2.59341
6.04315,2.60687
6.05091,2.62069
6.05867,2.63033
6.06642,2.65208
6.07418,2.65939
6.08194,2.67818
6.0897,2.68657
6.09745,2.69705
6.10521,2.71262
6.11297,2.73242
6.12073,2.74324
6.12848,2.75327
6.13624,2.76714
6.144,2.77867
6.15176,2.78906
6.15952,2.80504
6.16727,2.81608
6.17503,2.83525
6.18279,2.83959
6.19055,2.85556
6.1983,2.86556
6.20606,2.87613
6.21382,2.88565
6.22158,2.89598
6.22933,2.9075
6.23709,2.9137
6.24485,2.92479
6.25261,2.93072
6.26036,2.94457
6.26812,2.94899
6.27588,2.95724
6.28364,2.96689
6.29139,2.96927
6.29915,2.9808
6.30691,2.98297
6.31467,2.9858
6.32242,2.99172
6.33018,2.99427
6.33794,3.00338
6.3457,3.00013
6.35345,3.00562
6.36121,3.00626
6.36897,3.01177
6.37673,3.01254
6.38448,3.01233
6.39224,3.0142
6.4,3.00981
6.40776,3.01451
6.41552,3.00813
6.42327,3.01391
6.43103,3.01073
6.43879,3.01021
6.44655,3.00503
6.4543,3.00099
6.46206,2.99162
6.46982,2.98763
6.47758,2.98469
6.48533,2.98618
6.49309,2.98131
6.50085,2.96959
6.50861,2.96667
6.51636,2.95228
6.52412,2.9429
6.53188,2.93792
6.53964,2.92987
6.54739,2.92693
6.55515,2.91894
6.56291,2.91547
6.57067,2.90708
6.57842,2.89174
6.58618,2.87197
6.59394,2.87528
6.6017,2.88402
6.60945,2.87553
6.61721,2.86757
6.62497,2.86885
6.63273,2.86736
6.64048,2.868
6.64824,2.86693
6.656,2.86103
6.66376,2.85158
6.67152,2.85723
6.67927,2.84382
6.68703,2.84055
6.69479,2.84157
6.70255,2.84347
6.7103,2.84016
6.71806,2.83379
6.72582,2.82924
6.73358,2.83169
6.74133,2.8272
6.74909,2.8327
6.75685,2.82458
6.76461,2.82719
6.77236,2.82434
6.78012,2.82098
6.78788,2.82387
6.79564,2.82507
6.80339,2.82375
6.81115,2.82219
6.81891,2.82788
6.82667,2.83462
6.83442,2.82567
6.84218,2.82522
6.84994,2.82385
6.8577,2.82694
6.86545,2.82258
6.87321,2.82477
6.88097,2.82464
6.88873,2.82463
6.89648,2.82407
6.90424,2.8263
6.912,2.81316
6.91976,2.82018
6.92752,2.81782
6.93527,2.81344
6.94303,2.81384
6.95079,2.81421
6.95855,2.80767
6.9663,2.80231
6.97406,2.79951
6.98182,2.79308
6.98958,2.79053
6.99733,2.78272
7.00509,2.7798
7.01285,2.77185
7.02061,2.76777
7.02836,2.75785
7.03612,2.75116
7.04388,2.74475
7.05164,2.73406
7.05939,2.73269
7.06715,2.71986
7.07491,2.71479
7.08267,2.70285
7.09042,2.69174
7.09818,2.67747
7.10594,2.67251
7.1137,2.65806
7.12145,2.64988
7.12921,2.63812
7.13697,2.62209
7.14473,2.6121
7.15248,2.60069
7.16024,2.58211
7.168,2.57057
7.17576,2.55643
7.18352,2.54962
7.19127,2.54023
7.19903,2.51004
7.20679,2.50506
7.21455,2.48741
7.2223,2.47062
7.23006,2.45362
7.23782,2.4488
7.24558,2.42223
7.25333,2.40981
7.26109,2.39291
7.26885,2.37897
7.27661,2.36492
7.28436,2.33212
7.29212,2.33267
7.29988,2.31657
7.30764,2.29491
7.31539,2.28391
7.32315,2.25596
7.33091,2.24683
7.33867,2.23875
7.34642,2.21222
7.35418,2.20457
7.36194,2.17966
7.3697,2.16579
7.37745,2.15122
7.38521,2.14273
7.39297,2.11306
7.40073,2.11297
7.40848,2.09276
7.41624,2.0911
7.424,2.07301
7.43176,2.05755
7.43952,2.04191
7.44727,2.03982
7.45503,2.01524
7.46279,2.0054
7.47055,1.98485
7.4783,1.98735
7.48606,1.98092
7.49382,1.96644
7.50158,1.96147
7.50933,1.94817
7.51709,1.93053
7.52485,1.91917
7.53261,1.90859
7.54036,1.91899
7.54812,1.87368
7.55588,1.88664
7.56364,1.86319
7.57139,1.86356
7.57915,1.85898
7.58691,1.86249
7.59467,1.84364
7.60242,1.86037
7.61018,1.84645
7.61794,1.82903
7.6257,1.84222
7.63345,1.82486
7.64121,1.83204
7.64897,1.83537
7.65673,1.82332
7.66448,1.80665
7.67224,1.79025
7.68,1.82153
7.68776,1.80581
7.69552,1.79939
7.70327,1.7808
7.71103,1.77428
7.71879,1.76427
7.72655,1.74877
7.7343,1.74828
7.74206,1.74937
7.74982,1.74234
7.75758,1.71834
7.76533,1.71613
7.77309,1.70256
7.78085,1.69815
7.78861,1.67837
7.79636,1.6867
7.80412,1.68111
7.81188,1.65723
7.81964,1.65506
7.82739,1.63081
7.83515,1.62817
7.84291,1.62302
7.85067,1.62278
7.85842,1.61165
7.86618,1.59841
7.87394,1.58336
7.8817,1.57371
7.88945,1.54699
7.89721,1.55125
7.90497,1.5218
7.91273,1.53577
7.92048,1.51302
7.92824,1.51697
7.936,1.50857
7.94376,1.48895
7.95152,1.46757
7.95927,1.45253
7.96703,1.47404
7.97479,1.42519
7.98255,1.41419
7.9903,1.41518
7.99806,1.42586
8.00582,1.3799
8.01358,1.38186
8.02133,1.41247
8.02909,1.38563
8.03685,1.35532
8.04461,1.38397
8.05236,1.35849
8.06012,1.35322
8.06788,1.33576
8.07564,1.31332
8.08339,1.29262
8.09115,1.30877
8.09891,1.27755
8.10667,1.30241
8.11442,1.30263
8.12218,1.29709
8.12994,1.27131
8.1377,1.25347
8.14545,1.23274
8.15321,1.24546
8.16097,1.26692
8.16873,1.21211
8.17648,1.21531
8.18424,1.22636
8.192,1.25865
8.19976,1.2395
8.20752,1.21366
8.21527,1.24208
8.22303,1.20214
8.23079,1.18239
8.23855,1.22019
8.2463,1.20398
8.25406,1.18867
8.26182,1.17067
8.26958,1.20712
8.27733,1.1701
8.28509,1.17816
8.29285,1.18403
8.30061,1.12841
8.30836,1.18555
8.31612,1.15655
8.32388,1.17723
8.33164,1.2012
8.33939,1.10967
8.34715,1.17971
8.35491,1.19632
8.36267,1.17435
8.37042,1.14852
8.37818,1.15366
8.38594,1.15981
8.3937,1.13764
8.40145,1.15577
8.40921,1.15099
8.41697,1.13947
8.42473,1.13578
8.43248,1.15102
8.44024,1.17853
8.448,1.08997
8.45576,1.12002
8.46352,1.15092
8.47127,1.1684
8.47903,1.15258
8.48679,1.11761
8.49455,1.15658
8.5023,1.10195
8.51006,1.13645
8.51782,1.11531
8.52558,1.1037
8.53333,1.11873
8.54109,1.15113
8.54885,1.10433
8.55661,1.09794
8.56436,1.09749
8.57212,1.11727
8.57988,1.07255
8.58764,1.09225
8.59539,1.11491
8.60315,1.1126
8.61091,1.11553
8.61867,1.04865
8.62642,1.10689
8.63418,1.11747
8.64194,1.09216
8.6497,1.09797
8.65745,1.11861
8.66521,1.07885
8.67297,1.12829
8.68073,1.05482
8.68848,1.07623
8.69624,1.06541
8.704,1.08549
8.71176,1.1183
8.71952,1.09414
8.72727,1.079
8.73503,1.07579
8.74279,1.05317
8.75055,1.06939
8.7583,1.02663
8.76606,1.07627
8.77382,1.04006
8.78158,1.06787
8.78933,1.00628
8.79709,1.07162
8.80485,1.05204
8.81261,1.01536
8.82036,1.03113
8.82812,1.04012
8.83588,1.0026
8.84364,1.00833
8.85139,1.02247
8.85915,0.97973
8.86691,1.03343
8.87467,0.99263
8.88242,0.96832
8.89018,1.0132
8.89794,0.99119
8.9057,0.98556
8.91345,0.99185
8.92121,0.98226
8.92897,0.94913
8.93673,0.96824
8.94448,0.95362
8.95224,0.93663
8.96,0.9673
8.96776,0.9847
8.97552,0.92677
8.98327,0.98528
8.99103,0.90387
8.99879,0.92733
9.00655,0.96398
9.0143,0.96377
9.02206,0.95019
9.02982,0.93894
9.03758,1.00194
9.04533,0.91057
9.05309,0.92016
9.06085,0.90921
9.06861,0.95895
9.07636,0.958
9.08412,0.89287
9.09188,0.97903
9.09964,0.93776
9.10739,0.93297
9.11515,0.97955
9.12291,0.92054
9.13067,0.86787
9.13842,0.90943
9.14618,0.92167
9.15394,0.91235
9.1617,0.94492
9.16945,0.89466
9.17721,0.87589
9.18497,0.91704
9.19273,0.8511
9.20048,0.88688
9.20824,0.94928
9.216,0.88518
9.22376,0.86933
9.23152,0.85347
9.23927,0.94508
9.24703,0.94748
9.25479,0.88952
9.26255,0.88433
9.2703,0.90598
9.27806,0.89759
9.28582,0.89456
9.29358,0.87103
9.30133,0.94354
9.30909,0.93718
9.31685,0.91026
9.32461,0.95166
9.33236,0.92808
9.34012,0.86367
9.34788,0.92028
9.35564,0.91154
9.36339,0.93227
9.37115,0.92458
9.37891,0.88842
9.38667,0.97938
9.39442,0.9454
9.40218,0.9133
9.40994,0.9592
9.4177,0.92177
9.42545,0.92621
9.43321,0.97979
9.44097,0.94864
9.44873,0.92574
9.45648,0.94714
9.46424,0.92306
9.472,0.94108
9.47976,0.95902
9.48752,0.97731
9.49527,0.9273
9.50303,0.90698
9.51079,0.90777
9.51855,0.92463
9.5263,0.93516
9.53406,0.94569
9.54182,0.90553
9.54958,0.96502
9.55733,0.92253
9.56509,0.97419
9.57285,0.92008
9.58061,0.92596
9.58836,0.9103
9.59612,0.92596
9.60388,0.87918
9.61164,0.93067
9.61939,0.95761
