KEV,INTENSITY
0.38347,4.15981
0.39099,4.10912
0.39851,4.05767
0.40603,4.00756
0.41355,3.95839
0.42106,3.90977
0.42858,3.86227
0.4361,3.81599
0.44362,3.77061
0.45114,3.72467
0.45866,3.67977
0.46618,3.64004
0.4737,3.59815
0.48122,3.55826
0.48874,3.51871
0.49625,3.48088
0.50377,3.44419
0.51129,3.40941
0.51881,3.3757
0.52633,3.33807
0.53385,3.30782
0.54137,3.28192
0.54889,3.25136
0.55641,3.22298
0.56393,3.1915
0.57144,3.16446
0.57896,3.13602
0.58648,3.11677
0.594,3.09055
0.60152,3.06681
0.60904,3.0458
0.61656,3.02251
0.62408,3.00085
0.6316,2.9782
0.63912,2.95963
0.64663,2.93947
0.65415,2.92185
0.66167,2.90393
0.66919,2.88563
0.67671,2.86513
0.68423,2.85105
0.69175,2.83878
0.69927,2.81404
0.70679,2.79884
0.71431,2.79012
0.72182,2.7585
0.72934,2.74688
0.73686,2.73947
0.74438,2.71591
0.7519,2.70775
0.75942,2.68617
0.76694,2.66984
0.77446,2.66482
0.78198,2.65889
0.7895,2.63721
0.79701,2.62548
0.80453,2.61592
0.81205,2.61183
0.81957,2.59807
0.82709,2.58487
0.83461,2.58157
0.84213,2.56608
0.84965,2.55837
0.85717,2.55435
0.86469,2.542
0.8722,2.53731
0.87972,2.51659
0.88724,2.51357
0.89476,2.49765
0.90228,2.49026
0.9098,2.48287
0.91732,2.47088
0.92484,2.46816
0.93236,2.45419
0.93988,2.45307
0.94739,2.42689
0.95491,2.42411
0.96243,2.42006
0.96995,2.39751
0.97747,2.39684
0.98499,2.38653
0.99251,2.38079
1.00003,2.36847
1.00755,2.34548
1.01507,2.34044
1.02258,2.32669
1.0301,2.32393
1.03762,2.31162
1.04514,2.2982
1.05266,2.28682
1.06018,2.27407
1.0677,2.26548
1.07522,2.25759
1.08274,2.24509
1.09026,2.23545
1.09777,2.22178
1.10529,2.21234
1.11281,2.20173
1.12033,2.18688
1.12785,2.18186
1.13537,2.17356
1.14289,2.17334
1.15041,2.15243
1.15793,2.14113
1.16545,2.12545
1.17296,2.13017
1.18048,2.11384
1.188,2.11452
1.19552,2.11225
1.20304,2.10763
1.21056,2.08548
1.21808,2.07953
1.2256,2.07246
1.23312,2.07042
1.24064,2.05227
1.24815,2.0554
1.25567,2.03749
1.26319,2.05127
1.27071,2.04649
1.27823,2.02859
1.28575,2.01841
1.29327,2.02434
1.30079,2.02143
1.30831,2.00492
1.31583,2.02317
1.32334,2.01483
1.33086,2.02756
1.33838,2.0183
1.3459,2.027
1.35342,2.02106
1.36094,2.02637
1.36846,2.03341
1.37598,2.0258
1.3835,2.03324
1.39102,2.02639
1.39853,2.0517
1.40605,2.04941
1.41357,2.03528
1.42109,2.05395
1.42861,2.07442
1.43613,2.0613
1.44365,2.07536
1.45117,2.06373
1.45869,2.08336
1.46621,2.08964
1.47372,2.08746
1.48124,2.09821
1.48876,2.09734
1.49628,2.08876
1.5038,2.11124
1.51132,2.10322
1.51884,2.09993
1.52636,2.10189
1.53388,2.11746
1.5414,2.11323
1.54891,2.12206
1.55643,2.12007
1.56395,2.1224
1.57147,2.13354
1.57899,2.12453
1.58651,2.13653
1.59403,2.14628
1.60155,2.13881
1.60907,2.14753
1.61659,2.15395
1.6241,2.15547
1.63162,2.17031
1.63914,2.16384
1.64666,2.15296
1.65418,2.17231
1.6617,2.16573
1.66922,2.16482
1.67674,2.16324
1.68426,2.16223
1.69178,2.17195
1.69929,2.16557
1.70681,2.16592
1.71433,2.17201
1.72185,2.15865
1.72937,2.16284
1.73689,2.15271
1.74441,2.13938
1.75193,2.12827
1.75945,2.13279
1.76697,2.10873
1.77448,2.10177
1.782,2.10289
1.78952,2.08877
1.79704,2.07468
1.80456,2.06225
1.81208,2.04285
1.8196,2.04249
1.82712,2.01184
1.83464,2.00435
1.84216,1.97873
1.84967,1.9734
1.85719,1.94269
1.86471,1.94562
1.87223,1.92135
1.87975,1.91105
1.88727,1.88021
1.89479,1.88424
1.90231,1.86028
1.90983,1.85039
1.91735,1.82211
1.92486,1.81756
1.93238,1.77849
1.9399,1.80704
1.94742,1.7669
1.95494,1.76046
1.96246,1.72779
1.96998,1.73508
1.9775,1.75825
1.98502,1.72916
1.99254,1.7036
2.00005,1.6846
2.00757,1.7114
2.01509,1.6828
2.02261,1.68657
2.03013,1.67628
2.03765,1.66456
2.04517,1.66136
2.05269,1.66213
2.06021,1.66663
2.06773,1.66618
2.07524,1.66605
2.08276,1.64412
2.09028,1.65021
2.0978,1.65649
2.10532,1.68194
2.11284,1.65293
2.12036,1.68235
2.12788,1.69192
2.1354,1.71032
2.14292,1.71531
2.15043,1.7172
2.15795,1.72103
2.16547,1.72706
2.17299,1.75187
2.18051,1.74504
2.18803,1.76857
2.19555,1.78807
2.20307,1.78395
2.21059,1.79474
2.21811,1.82358
2.22562,1.82117
2.23314,1.83779
2.24066,1.84549
2.24818,1.84942
2.2557,1.85931
2.26322,1.8594
2.27074,1.85642
2.27826,1.86993
2.28578,1.85899
2.2933,1.86632
2.30081,1.87005
2.30833,1.8763
2.31585,1.87967
2.32337,1.86703
2.33089,1.86031
2.33841,1.88197
2.34593,1.86212
2.35345,1.84974
2.36097,1.86006
2.36849,1.84097
2.376,1.83401
2.38352,1.82531
2.39104,1.80921
2.39856,1.79215
2.40608,1.78047
2.4136,1.78052
2.42112,1.77083
2.42864,1.74804
2.43616,1.73374
2.44368,1.70546
2.45119,1.70442
2.45871,1.69607
2.46623,1.68613
2.47375,1.66857
2.48127,1.649
2.48879,1.6256
2.49631,1.6319
2.50383,1.60257
2.51135,1.60666
2.51887,1.60313
2.52638,1.57567
2.5339,1.54406
2.54142,1.52917
2.54894,1.53353
2.55646,1.53786
2.56398,1.50345
2.5715,1.52372
2.57902,1.50674
2.58654,1.48002
2.59406,1.51027
2.60157,1.47174
2.60909,1.49842
2.61661,1.45615
2.62413,1.45585
2.63165,1.44583
2.63917,1.42268
2.64669,1.44347
2.65421,1.42001
2.66173,1.41499
2.66925,1.4088
2.67676,1.4312
2.68428,1.40051
2.6918,1.43576
2.69932,1.41905
2.70684,1.36617
2.71436,1.3945
2.72188,1.37225
2.7294,1.34895
2.73692,1.33758
2.74444,1.35035
2.75195,1.35053
2.75947,1.34373
2.76699,1.34882
2.77451,1.34498
2.78203,1.3845
2.78955,1.33403
2.79707,1.3158
2.80459,1.35518
2.81211,1.32044
2.81963,1.33576
2.82714,1.32556
2.83466,1.31424
2.84218,1.31896
2.8497,1.32583
2.85722,1.32137
2.86474,1.35724
2.87226,1.32172
2.87978,1.31727
2.8873,1.31955
2.89482,1.32928
2.90233,1.31795
2.90985,1.33686
2.91737,1.33344
2.92489,1.32406
2.93241,1.33486
2.93993,1.34943
2.94745,1.32565
2.95497,1.35014
2.96249,1.36076
2.97001,1.36181
2.97752,1.3561
2.98504,1.38245
2.99256,1.37095
3.00008,1.38786
3.0076,1.39327
3.01512,1.39809
3.02264,1.38047
3.03016,1.44342
3.03768,1.42452
3.0452,1.44501
3.05271,1.44411
3.06023,1.45381
3.06775,1.48586
3.07527,1.49055
3.08279,1.46975
3.09031,1.50333
3.09783,1.52195
3.10535,1.54393
3.11287,1.56223
3.12039,1.57783
3.1279,1.57911
3.13542,1.60342
3.14294,1.61919
3.15046,1.6086
3.15798,1.66014
3.1655,1.66022
3.17302,1.70079
3.18054,1.69937
3.18806,1.71874
3.19558,1.73024
3.20309,1.74496
3.21061,1.76783
3.21813,1.78061
3.22565,1.78923
3.23317,1.80838
3.24069,1.81584
3.24821,1.82811
3.25573,1.85722
3.26325,1.87
3.27077,1.8769
3.27828,1.8949
3.2858,1.90802
3.29332,1.92197
3.30084,1.9242
3.30836,1.94223
3.31588,1.95648
3.3234,1.96384
3.33092,1.99748
3.33844,2.00058
3.34596,2.00918
3.35347,2.01773
3.36099,2.03801
3.36851,2.04847
3.37603,2.06742
3.38355,2.09083
3.39107,2.10927
3.39859,2.12039
3.40611,2.14974
3.41363,2.17094
3.42115,2.19556
3.42866,2.22321
3.43618,2.24429
3.4437,2.26152
3.45122,2.29516
3.45874,2.30831
3.46626,2.34929
3.47378,2.37834
3.4813,2.40756
3.48882,2.42076
3.49634,2.45781
3.50385,2.47284
3.51137,2.50964
3.51889,2.53777
3.52641,2.55643
3.53393,2.58276
3.54145,2.60782
3.54897,2.63269
3.55649,2.65563
3.56401,2.67662
3.57153,2.69905
3.57904,2.71939
3.58656,2.73284
3.59408,2.75104
3.6016,2.77264
3.60912,2.78677
3.61664,2.7973
3.62416,2.80942
3.63168,2.82279
3.6392,2.83246
3.64672,2.84367
3.65423,2.84981
3.66175,2.85727
3.66927,2.85548
3.67679,2.86083
3.68431,2.85975
3.69183,2.85887
3.69935,2.85791
3.70687,2.85593
3.71439,2.84815
3.72191,2.83861
3.72942,2.83892
3.73694,2.82682
3.74446,2.81716
3.75198,2.80716
3.7595,2.78908
3.76702,2.7747
3.77454,2.75956
3.78206,2.7406
3.78958,2.72264
3.7971,2.70191
3.80461,2.68585
3.81213,2.6666
3.81965,2.64341
3.82717,2.62251
3.83469,2.59882
3.84221,2.56897
3.84973,2.54847
3.85725,2.52241
3.86477,2.50933
3.87229,2.49317
3.8798,2.4726
3.88732,2.45021
3.89484,2.43829
3.90236,2.41677
3.90988,2.40623
3.9174,2.37955
3.92492,2.36641
3.93244,2.34922
3.93996,2.33795
3.94748,2.32112
3.95499,2.30502
3.96251,2.2996
3.97003,2.28853
3.97755,2.27286
3.98507,2.25879
3.99259,2.24846
4.00011,2.22909
4.00763,2.22073
4.01515,2.22348
4.02267,2.20494
4.03018,2.19662
4.0377,2.18269
4.04522,2.17038
4.05274,2.16881
4.06026,2.15901
4.06778,2.12724
4.0753,2.12271
4.08282,2.11581
4.09034,2.09787
4.09786,2.08651
4.10537,2.06565
4.11289,2.06056
4.12041,2.04351
4.12793,2.03065
4.13545,2.02048
4.14297,1.99892
4.15049,1.98571
4.15801,1.9766
4.16553,1.9581
4.17305,1.95199
4.18056,1.92312
4.18808,1.90565
4.1956,1.90802
4.20312,1.90844
4.21064,1.88975
4.21816,1.89621
4.22568,1.89039
4.2332,1.89682
4.24072,1.87426
4.24824,1.87996
4.25575,1.88205
4.26327,1.8868
4.27079,1.89232
4.27831,1.91553
4.28583,1.92765
4.29335,1.9342
4.30087,1.95314
4.30839,1.9712
4.31591,1.98957
4.32343,1.99527
4.33094,2.014
4.33846,2.04193
4.34598,2.04609
4.3535,2.06901
4.36102,2.09305
4.36854,2.11524
4.37606,2.12578
4.38358,2.14472
4.3911,2.15516
4.39862,2.17279
4.40613,2.19493
4.41365,2.20345
4.42117,2.21186
4.42869,2.22717
4.43621,2.24917
4.44373,2.25782
4.45125,2.25871
4.45877,2.27354
4.46629,2.27823
4.47381,2.29158
4.48132,2.29397
4.48884,2.29077
4.49636,2.29554
4.50388,2.30491
4.5114,2.29956
4.51892,2.29899
4.52644,2.29771
4.53396,2.29037
4.54148,2.29476
4.549,2.28746
4.55651,2.27586
4.56403,2.26976
4.57155,2.25802
4.57907,2.25975
4.58659,2.2346
4.59411,2.21908
4.60163,2.22128
4.60915,2.20579
4.61667,2.18274
4.62419,2.17634
4.6317,2.14757
4.63922,2.13066
4.64674,2.11818
4.65426,2.09715
4.66178,2.08204
4.6693,2.05625
4.67682,2.04295
4.68434,2.0185
4.69186,1.99967
4.69938,1.99475
4.70689,1.95854
4.71441,1.93324
4.72193,1.93833
4.72945,1.91521
4.73697,1.896
4.74449,1.87646
4.75201,1.87406
4.75953,1.85491
4.76705,1.83219
4.77457,1.82731
4.78208,1.80893
4.7896,1.80931
4.79712,1.79469
4.80464,1.78071
4.81216,1.7896
4.81968,1.78717
4.8272,1.78985
4.83472,1.76463
4.84224,1.76695
4.84976,1.77579
4.85727,1.79258
4.86479,1.78012
4.87231,1.7899
4.87983,1.77913
4.88735,1.79863
4.89487,1.79653
4.90239,1.81026
4.90991,1.78353
4.91743,1.79012
4.92495,1.79152
4.93246,1.78532
4.93998,1.80533
4.9475,1.78085
4.95502,1.79876
4.96254,1.78688
4.97006,1.79176
4.97758,1.78539
4.9851,1.78872
4.99262,1.76636
5.00014,1.77799
5.00765,1.79533
5.01517,1.79734
5.02269,1.77556
5.03021,1.77352
5.03773,1.77561
5.04525,1.77725
5.05277,1.76625
5.06029,1.77188
5.06781,1.76665
5.07533,1.77687
5.08284,1.76007
5.09036,1.77795
5.09788,1.78305
5.1054,1.78894
5.11292,1.77415
5.12044,1.78493
5.12796,1.79599
5.13548,1.78502
5.143,1.81359
5.15052,1.79031
5.15803,1.83142
5.16555,1.82011
5.17307,1.83889
5.18059,1.84709
5.18811,1.86295
5.19563,1.86743
5.20315,1.88429
5.21067,1.89847
5.21819,1.90862
5.22571,1.90981
5.23322,1.93057
5.24074,1.96219
5.24826,1.95131
5.25578,1.96726
5.2633,1.98916
5.27082,1.991
5.27834,2.01507
5.28586,2.03164
5.29338,2.03181
5.3009,2.05708
5.30841,2.0561
5.31593,2.06675
5.32345,2.08327
5.33097,2.08898
5.33849,2.08826
5.34601,2.09554
5.35353,2.11317
5.36105,2.1202
5.36857,2.1313
5.37609,2.12888
5.3836,2.13463
5.39112,2.12045
5.39864,2.13257
5.40616,2.13867
5.41368,2.13125
5.4212,2.14398
5.42872,2.1316
5.43624,2.12908
5.44376,2.13545
5.45128,2.1212
5.45879,2.1231
5.46631,2.11662
5.47383,2.10863
5.48135,2.09984
5.48887,2.09275
5.49639,2.0893
5.50391,2.09022
5.51143,2.06182
5.51895,2.06031
5.52647,2.0425
5.53398,2.04383
5.5415,2.03743
5.54902,2.01753
5.55654,2.00588
5.56406,2.0162
5.57158,1.99851
5.5791,1.98628
5.58662,1.97714
5.59414,1.96467
5.60166,1.96253
5.60917,1.96482
5.61669,1.96109
5.62421,1.95333
5.63173,1.95776
5.63925,1.95063
5.64677,1.94547
5.65429,1.94991
5.66181,1.95891
5.66933,1.95072
5.67685,1.94344
5.68436,1.9553
5.69188,1.94534
5.6994,1.97133
5.70692,1.98894
5.71444,1.98779
5.72196,1.99892
5.72948,1.99935
5.737,2.02132
5.74452,2.02506
5.75204,2.03872
5.75955,2.02968
5.76707,2.05696
5.77459,2.07309
5.78211,2.07431
5.78963,2.07873
5.79715,2.09884
5.80467,2.11198
5.81219,2.11423
5.81971,2.13184
5.82723,2.1345
5.83474,2.14182
5.84226,2.15762
5.84978,2.17416
5.8573,2.18326
5.86482,2.1787
5.87234,2.19746
5.87986,2.21314
5.88738,2.22192
5.8949,2.23154
5.90242,2.24157
5.90993,2.25903
5.91745,2.25869
5.92497,2.25817
5.93249,2.25936
5.94001,2.29441
5.94753,2.29988
5.95505,2.30338
5.96257,2.30884
5.97009,2.31622
5.97761,2.32808
5.98512,2.34229
5.99264,2.3405
6.00016,2.3584
6.00768,2.37044
6.0152,2.37397
6.02272,2.39146
6.03024,2.40909
6.03776,2.42257
6.04528,2.42683
6.0528,2.44089
6.06031,2.45999
6.06783,2.47589
6.07535,2.49162
6.08287,2.50736
6.09039,2.52785
6.09791,2.54563
6.10543,2.57077
6.11295,2.58697
6.12047,2.59677
6.12799,2.62072
6.1355,2.63732
6.14302,2.66191
6.15054,2.68479
6.15806,2.69928
6.16558,2.72867
6.1731,2.74737
6.18062,2.77456
6.18814,2.78595
6.19566,2.81381
6.20318,2.82967
6.21069,2.85182
6.21821,2.87646
6.22573,2.88771
6.23325,2.91139
6.24077,2.93058
6.24829,2.94721
6.25581,2.96605
6.26333,2.98219
6.27085,2.99944
6.27837,3.00815
6.28588,3.02677
6.2934,3.03929
6.30092,3.05449
6.30844,3.06607
6.31596,3.07714
6.32348,3.08549
6.331,3.09454
6.33852,3.10202
6.34604,3.10945
6.35356,3.12133
6.36107,3.12429
6.36859,3.12922
6.37611,3.13109
6.38363,3.13303
6.39115,3.1352
6.39867,3.13405
6.40619,3.13418
6.41371,3.12724
6.42123,3.12593
6.42875,3.12088
6.43626,3.12076
6.44378,3.11369
6.4513,3.10627
6.45882,3.0956
6.46634,3.0882
6.47386,3.07727
6.48138,3.06047
6.4889,3.05101
6.49642,3.03959
6.50394,3.02359
6.51145,3.00683
6.51897,2.99202
6.52649,2.97705
6.53401,2.95729
6.54153,2.94193
6.54905,2.92334
6.55657,2.90612
6.56409,2.88294
6.57161,2.87088
6.57913,2.84975
6.58664,2.83202
6.59416,2.81505
6.60168,2.80421
6.6092,2.77335
6.61672,2.76673
6.62424,2.75121
6.63176,2.7366
6.63928,2.73267
6.6468,2.71977
6.65432,2.70386
6.66183,2.69686
6.66935,2.69906
6.67687,2.69415
6.68439,2.69558
6.69191,2.69735
6.69943,2.69186
6.70695,2.70167
6.71447,2.70356
6.72199,2.71248
6.72951,2.72063
6.73702,2.72805
6.74454,2.74243
6.75206,2.75587
6.75958,2.76382
6.7671,2.77629
6.77462,2.78755
6.78214,2.80393
6.78966,2.82837
6.79718,2.83213
6.8047,2.85117
6.81221,2.86358
6.81973,2.87265
6.82725,2.88594
6.83477,2.89837
6.84229,2.90889
6.84981,2.91449
6.85733,2.92841
6.86485,2.93465
6.87237,2.94323
6.87989,2.94895
6.8874,2.95612
6.89492,2.95555
6.90244,2.9596
6.90996,2.96915
6.91748,2.96418
6.925,2.96643
6.93252,2.96795
6.94004,2.967
6.94756,2.96622
6.95508,2.96375
6.9626,2.9617
6.97011,2.95585
6.97763,2.95421
6.98515,2.94441
6.99267,2.9364
7.00019,2.93209
7.00771,2.92031
7.01523,2.90948
7.02275,2.89765
7.03027,2.88756
7.03779,2.87383
7.0453,2.85806
7.05282,2.84175
7.06034,2.82685
7.06786,2.80809
7.07538,2.79011
7.0829,2.77676
7.09042,2.74998
7.09794,2.73313
7.10546,2.71006
7.11298,2.69181
7.12049,2.66263
7.12801,2.63922
7.13553,2.61481
7.14305,2.59524
7.15057,2.57011
7.15809,2.53665
7.16561,2.51928
7.17313,2.48684
7.18065,2.46159
7.18817,2.42813
7.19568,2.40131
7.2032,2.36833
7.21072,2.34245
7.21824,2.30102
7.22576,2.28597
7.23328,2.25656
7.2408,2.22325
7.24832,2.19391
7.25584,2.1662
7.26336,2.13133
7.27087,2.10113
7.27839,2.08297
7.28591,2.05335
7.29343,2.02799
7.30095,1.99387
7.30847,1.9745
7.31599,1.96885
7.32351,1.94641
7.33103,1.92746
7.33855,1.89714
7.34606,1.90072
7.35358,1.87731
7.3611,1.87906
7.36862,1.85213
7.37614,1.85921
7.38366,1.85685
7.39118,1.85483
7.3987,1.85428
7.40622,1.84674
7.41374,1.85449
7.42125,1.86487
7.42877,1.85381
7.43629,1.87029
7.44381,1.87917
7.45133,1.8709
7.45885,1.86346
7.46637,1.86496
7.47389,1.89159
7.48141,1.90243
7.48893,1.9024
7.49644,1.9101
7.50396,1.92712
7.51148,1.91579
7.519,1.92833
7.52652,1.92494
7.53404,1.93722
7.54156,1.93989
7.54908,1.94453
7.5566,1.95626
7.56412,1.94542
7.57163,1.95523
7.57915,1.95479
7.58667,1.9706
7.59419,1.95649
7.60171,1.96385
7.60923,1.9697
7.61675,1.96157
7.62427,1.94887
7.63179,1.93306
7.63931,1.95954
7.64682,1.93643
7.65434,1.93881
7.66186,1.92098
7.66938,1.91655
7.6769,1.92039
7.68442,1.90388
7.69194,1.9103
7.69946,1.90307
7.70698,1.87515
7.7145,1.88687
7.72201,1.87059
7.72953,1.86368
7.73705,1.84649
7.74457,1.84629
7.75209,1.81256
7.75961,1.80595
7.76713,1.80323
7.77465,1.78463
7.78217,1.75655
7.78969,1.75501
7.7972,1.73579
7.80472,1.71975
7.81224,1.68195
7.81976,1.67021
7.82728,1.65179
7.8348,1.63757
7.84232,1.61896
7.84984,1.58832
7.85736,1.53944
7.86488,1.54608
7.87239,1.5008
7.87991,1.52023
7.88743,1.49662
7.89495,1.46921
7.90247,1.47985
7.90999,1.42699
7.91751,1.4363
7.92503,1.39907
7.93255,1.39439
7.94007,1.38231
7.94758,1.37468
7.9551,1.35315
7.96262,1.34457
7.97014,1.33183
7.97766,1.31523
7.98518,1.29318
7.9927,1.31917
8.00022,1.2938
8.00774,1.28578
8.01526,1.27026
8.02277,1.25068
8.03029,1.24403
8.03781,1.27091
8.04533,1.2483
8.05285,1.25467
8.06037,1.23909
8.06789,1.20016
8.07541,1.20528
8.08293,1.2377
8.09045,1.23438
8.09796,1.18555
8.10548,1.21335
8.113,1.21089
8.12052,1.20404
8.12804,1.18886
8.13556,1.19224
8.14308,1.19343
8.1506,1.19851
8.15812,1.18031
8.16564,1.14947
8.17315,1.16884
8.18067,1.17582
8.18819,1.14405
8.19571,1.13264
8.20323,1.11536
8.21075,1.13492
8.21827,1.15835
8.22579,1.12187
8.23331,1.14963
8.24083,1.11394
8.24834,1.1213
8.25586,1.13748
8.26338,1.10454
8.2709,1.12353
8.27842,1.10635
8.28594,1.12637
8.29346,1.083
8.30098,1.09977
8.3085,1.10394
8.31602,1.07758
8.32353,1.07132
8.33105,1.06297
8.33857,1.07608
8.34609,1.08839
8.35361,1.08086
8.36113,1.10854
8.36865,1.07052
8.37617,1.06482
8.38369,1.06041
8.39121,1.02687
8.39872,1.05879
8.40624,1.10377
8.41376,1.0449
8.42128,1.05774
8.4288,1.04939
8.43632,1.01511
8.44384,1.0161
8.45136,1.07678
8.45888,1.01495
8.4664,1.03792
8.47391,1.06319
8.48143,1.00148
8.48895,1.01728
8.49647,1.0218
8.50399,1.03751
8.51151,1.00837
8.51903,1.00307
8.52655,1.01391
8.53407,0.99332
8.54159,1.05157
8.5491,0.97128
8.55662,1.01808
8.56414,0.98179
8.57166,0.96728
8.57918,0.98286
8.5867,0.9878
8.59422,1.00921
8.60174,1.01403
8.60926,0.99514
8.61678,0.96925
8.62429,0.93599
8.63181,0.99574
8.63933,0.97761
8.64685,0.95818
8.65437,0.99315
8.66189,0.97616
8.66941,0.91738
8.67693,0.93693
8.68445,0.98134
8.69197,0.95988
8.69948,0.9722
8.707,0.95345
8.71452,0.95862
8.72204,0.96781
8.72956,0.97958
8.73708,0.9323
8.7446,0.98373
8.75212,0.98183
8.75964,1.00173
8.76716,0.95685
8.77467,1.02149
8.78219,1.01227
8.78971,0.9442
8.79723,0.96144
8.80475,0.92202
8.81227,0.8989
8.81979,0.92722
8.82731,0.93891
8.83483,0.95731
8.84235,0.94781
8.84986,0.93663
8.85738,0.9345
8.8649,0.89241
8.87242,0.9485
8.87994,0.95466
8.88746,0.92248
8.89498,0.92487
8.9025,0.95887
8.91002,0.94109
8.91754,0.976
8.92505,0.96321
8.93257,0.92527
8.94009,0.93492
8.94761,0.96643
8.95513,0.9681
8.96265,0.9208
8.97017,0.93808
8.97769,0.94551
8.98521,0.94028
8.99273,0.91005
9.00024,0.95728
9.00776,0.95884
9.01528,0.88472
9.0228,0.93753
9.03032,0.91169
9.03784,0.90608
9.04536,0.86013
9.05288,0.91031
9.0604,0.87615
9.06792,0.92838
9.07543,0.93836
9.08295,0.92019
9.09047,0.95434
9.09799,0.91812
9.10551,0.90046
9.11303,0.90673
9.12055,0.92469
9.12807,0.89473
9.13559,0.93416
9.14311,0.94839
9.15062,0.91604
9.15814,0.87157
9.16566,0.89664
9.17318,0.89592
9.1807,0.88177
9.18822,0.89081
9.19574,0.93918
9.20326,0.90398
9.21078,0.90537
9.2183,0.92272
9.22581,0.93801
9.23333,0.91156
9.24085,0.95267
9.24837,0.92285
9.25589,0.91312
9.26341,0.95054
9.27093,0.90931
9.27845,0.87163
9.28597,0.91536
9.29349,0.88585
9.301,0.89526
9.30852,0.85562
9.31604,0.85161
9.32356,0.94233
