KEV,INTENSITY
0.38598,4.40768
0.39355,4.36145
0.40112,4.31416
0.40869,4.26721
0.41626,4.22099
0.42383,4.17418
0.43139,4.12996
0.43896,4.08418
0.44653,4.03943
0.4541,3.99662
0.46167,3.95297
0.46923,3.9103
0.4768,3.86768
0.48437,3.82798
0.49194,3.78721
0.49951,3.74781
0.50708,3.71157
0.51464,3.67194
0.52221,3.63687
0.52978,3.60177
0.53735,3.56871
0.54492,3.53384
0.55249,3.50207
0.56005,3.47258
0.56762,3.44232
0.57519,3.4133
0.58276,3.39046
0.59033,3.36408
0.5979,3.33738
0.60546,3.31418
0.61303,3.29029
0.6206,3.26479
0.62817,3.24541
0.63574,3.22663
0.64331,3.20381
0.65087,3.1862
0.65844,3.16648
0.66601,3.14956
0.67358,3.13348
0.68115,3.11535
0.68872,3.09744
0.69628,3.08092
0.70385,3.06762
0.71142,3.05229
0.71899,3.03784
0.72656,3.02027
0.73413,3.01029
0.74169,2.98803
0.74926,2.97739
0.75683,2.96392
0.7644,2.95187
0.77197,2.9385
0.77954,2.92309
0.7871,2.90747
0.79467,2.89878
0.80224,2.88079
0.80981,2.86727
0.81738,2.85451
0.82495,2.83867
0.83251,2.82753
0.84008,2.81036
0.84765,2.80097
0.85522,2.79238
0.86279,2.77806
0.87036,2.76467
0.87792,2.74699
0.88549,2.74574
0.89306,2.72297
0.90063,2.71199
0.9082,2.70215
0.91577,2.68318
0.92333,2.66904
0.9309,2.66306
0.93847,2.64809
0.94604,2.64162
0.95361,2.63918
0.96117,2.6225
0.96874,2.61772
0.97631,2.60916
0.98388,2.60083
0.99145,2.58629
0.99902,2.58104
1.00658,2.57359
1.01415,2.56065
1.02172,2.5544
1.02929,2.53993
1.03686,2.53833
1.04443,2.52035
1.05199,2.50835
1.05956,2.50266
1.06713,2.49239
1.0747,2.48209
1.08227,2.47237
1.08984,2.46321
1.0974,2.45928
1.10497,2.44255
1.11254,2.43537
1.12011,2.41909
1.12768,2.41683
1.13525,2.40837
1.14281,2.39849
1.15038,2.38474
1.15795,2.37443
1.16552,2.36407
1.17309,2.35542
1.18066,2.3487
1.18822,2.33967
1.19579,2.32795
1.20336,2.32204
1.21093,2.309
1.2185,2.30957
1.22607,2.30258
1.23363,2.28549
1.2412,2.27711
1.24877,2.27268
1.25634,2.26739
1.26391,2.2559
1.27148,2.2455
1.27904,2.23868
1.28661,2.23169
1.29418,2.22943
1.30175,2.2212
1.30932,2.21085
1.31689,2.20982
1.32445,2.21488
1.33202,2.19556
1.33959,2.1972
1.34716,2.18942
1.35473,2.19178
1.3623,2.18091
1.36986,2.17364
1.37743,2.17251
1.385,2.17614
1.39257,2.17122
1.40014,2.16033
1.4077,2.15341
1.41527,2.15386
1.42284,2.15846
1.43041,2.13687
1.43798,2.13364
1.44555,2.1352
1.45311,2.12538
1.46068,2.12929
1.46825,2.11955
1.47582,2.114
1.48339,2.11569
1.49096,2.11575
1.49852,2.11508
1.50609,2.0929
1.51366,2.10077
1.52123,2.0923
1.5288,2.08563
1.53637,2.08089
1.54393,2.08285
1.5515,2.07693
1.55907,2.07987
1.56664,2.08187
1.57421,2.06854
1.58178,2.06735
1.58934,2.06793
1.59691,2.05966
1.60448,2.05608
1.61205,2.05694
1.61962,2.05183
1.62719,2.06231
1.63475,2.05794
1.64232,2.05273
1.64989,2.04611
1.65746,2.04892
1.66503,2.05592
1.6726,2.03711
1.68016,2.03243
1.68773,2.03571
1.6953,2.03776
1.70287,2.03692
1.71044,2.04094
1.71801,2.03399
1.72557,2.02482
1.73314,2.01746
1.74071,2.0216
1.74828,2.00264
1.75585,2.0002
1.76342,1.98644
1.77098,1.99403
1.77855,1.98543
1.78612,1.98383
1.79369,1.96791
1.80126,1.94954
1.80883,1.9568
1.81639,1.94338
1.82396,1.93829
1.83153,1.92375
1.8391,1.92007
1.84667,1.91805
1.85423,1.91692
1.8618,1.90313
1.86937,1.88272
1.87694,1.89594
1.88451,1.87993
1.89208,1.877
1.89964,1.8708
1.90721,1.87363
1.91478,1.87544
1.92235,1.86692
1.92992,1.86159
1.93749,1.85588
1.94505,1.85653
1.95262,1.84787
1.96019,1.85308
1.96776,1.83807
1.97533,1.83011
1.9829,1.83203
1.99046,1.82714
1.99803,1.83213
2.0056,1.83058
2.01317,1.82125
2.02074,1.80887
2.02831,1.82007
2.03587,1.80621
2.04344,1.80531
2.05101,1.81721
2.05858,1.81567
2.06615,1.78852
2.07372,1.79165
2.08128,1.79981
2.08885,1.79201
2.09642,1.801
2.10399,1.78798
2.11156,1.79263
2.11913,1.80627
2.12669,1.7987
2.13426,1.78946
2.14183,1.7886
2.1494,1.7949
2.15697,1.79138
2.16454,1.79069
2.1721,1.80456
2.17967,1.80529
2.18724,1.78478
2.19481,1.78728
2.20238,1.81304
2.20995,1.78944
2.21751,1.79343
2.22508,1.79948
2.23265,1.80603
2.24022,1.77111
2.24779,1.79233
2.25536,1.78517
2.26292,1.78624
2.27049,1.777
2.27806,1.77118
2.28563,1.77039
2.2932,1.77811
2.30077,1.75613
2.30833,1.76529
2.3159,1.76169
2.32347,1.75072
2.33104,1.76593
2.33861,1.74247
2.34617,1.74832
2.35374,1.73007
2.36131,1.73389
2.36888,1.71768
2.37645,1.71729
2.38402,1.71219
2.39158,1.69242
2.39915,1.689
2.40672,1.67606
2.41429,1.69965
2.42186,1.69802
2.42943,1.68176
2.43699,1.66609
2.44456,1.67929
2.45213,1.65404
2.4597,1.66821
2.46727,1.65607
2.47484,1.64587
2.4824,1.64241
2.48997,1.64997
2.49754,1.65104
2.50511,1.65249
2.51268,1.64189
2.52025,1.6471
2.52781,1.63054
2.53538,1.62738
2.54295,1.64114
2.55052,1.62912
2.55809,1.64057
2.56566,1.62664
2.57322,1.62453
2.58079,1.63248
2.58836,1.61803
2.59593,1.6341
2.6035,1.62576
2.61107,1.62154
2.61863,1.62522
2.6262,1.63101
2.63377,1.62288
2.64134,1.61823
2.64891,1.6099
2.65648,1.6238
2.66404,1.60739
2.67161,1.61647
2.67918,1.61105
2.68675,1.60081
2.69432,1.59933
2.70189,1.5905
2.70945,1.58367
2.71702,1.58936
2.72459,1.57895
2.73216,1.57363
2.73973,1.58075
2.7473,1.56256
2.75486,1.54401
2.76243,1.5727
2.77,1.54685
2.77757,1.55449
2.78514,1.54613
2.7927,1.52558
2.80027,1.5185
2.80784,1.5477
2.81541,1.51715
2.82298,1.52329
2.83055,1.49744
2.83811,1.50354
2.84568,1.48814
2.85325,1.49647
2.86082,1.49204
2.86839,1.47899
2.87596,1.50795
2.88352,1.5164
2.89109,1.48328
2.89866,1.50269
2.90623,1.50324
2.9138,1.49168
2.92137,1.49264
2.92893,1.48959
2.9365,1.49904
2.94407,1.50887
2.95164,1.50298
2.95921,1.49761
2.96678,1.50476
2.97434,1.51886
2.98191,1.50881
2.98948,1.52337
2.99705,1.50782
3.00462,1.51147
3.01219,1.51772
3.01975,1.51678
3.02732,1.5353
3.03489,1.54608
3.04246,1.54403
3.05003,1.56354
3.0576,1.54892
3.06516,1.55645
3.07273,1.56435
3.0803,1.59082
3.08787,1.61307
3.09544,1.61083
3.10301,1.62382
3.11057,1.6398
3.11814,1.64004
3.12571,1.66263
3.13328,1.67393
3.14085,1.67994
3.14842,1.71069
3.15598,1.72406
3.16355,1.71838
3.17112,1.72844
3.17869,1.75052
3.18626,1.77062
3.19383,1.77333
3.20139,1.79973
3.20896,1.80596
3.21653,1.80962
3.2241,1.83952
3.23167,1.83404
3.23923,1.84387
3.2468,1.8763
3.25437,1.88114
3.26194,1.86824
3.26951,1.88444
3.27708,1.90103
3.28464,1.91018
3.29221,1.92664
3.29978,1.9318
3.30735,1.93624
3.31492,1.94989
3.32249,1.96153
3.33005,1.96988
3.33762,1.98285
3.34519,1.9822
3.35276,2.00311
3.36033,2.01847
3.3679,2.02733
3.37546,2.0384
3.38303,2.04369
3.3906,2.06707
3.39817,2.07865
3.40574,2.08929
3.41331,2.10235
3.42087,2.12725
3.42844,2.14983
3.43601,2.16082
3.44358,2.18098
3.45115,2.21227
3.45872,2.2249
3.46628,2.24565
3.47385,2.27605
3.48142,2.29499
3.48899,2.3134
3.49656,2.33019
3.50413,2.35106
3.51169,2.36681
3.51926,2.38894
3.52683,2.40679
3.5344,2.4357
3.54197,2.44729
3.54954,2.46771
3.5571,2.48741
3.56467,2.49959
3.57224,2.5192
3.57981,2.53286
3.58738,2.53848
3.59495,2.5571
3.60251,2.56552
3.61008,2.57981
3.61765,2.58457
3.62522,2.59529
3.63279,2.60749
3.64036,2.61353
3.64792,2.61505
3.65549,2.61504
3.66306,2.62019
3.67063,2.6244
3.6782,2.62105
3.68577,2.61752
3.69333,2.62098
3.7009,2.6129
3.70847,2.60872
3.71604,2.60017
3.72361,2.6005
3.73117,2.5891
3.73874,2.58305
3.74631,2.5708
3.75388,2.55757
3.76145,2.54858
3.76902,2.53609
3.77658,2.53193
3.78415,2.52489
3.79172,2.50087
3.79929,2.48679
3.80686,2.4732
3.81443,2.46625
3.82199,2.45294
3.82956,2.43718
3.83713,2.42667
3.8447,2.41089
3.85227,2.40006
3.85984,2.37492
3.8674,2.36274
3.87497,2.34465
3.88254,2.32417
3.89011,2.30963
3.89768,2.30185
3.90525,2.27019
3.91281,2.26145
3.92038,2.24272
3.92795,2.23579
3.93552,2.21422
3.94309,2.20319
3.95066,2.19511
3.95822,2.17
3.96579,2.15983
3.97336,2.15425
3.98093,2.13288
3.9885,2.11966
3.99607,2.11919
4.00363,2.08947
4.0112,2.09727
4.01877,2.09334
4.02634,2.07561
4.03391,2.06123
4.04148,2.05678
4.04904,2.0363
4.05661,2.02469
4.06418,2.01507
4.07175,2.0072
4.07932,2.00428
4.08689,1.98709
4.09445,1.96978
4.10202,1.96908
4.10959,1.9567
4.11716,1.94248
4.12473,1.93434
4.1323,1.92146
4.13986,1.92212
4.14743,1.89834
4.155,1.89451
4.16257,1.90194
4.17014,1.89114
4.1777,1.87363
4.18527,1.87145
4.19284,1.88105
4.20041,1.86876
4.20798,1.88717
4.21555,1.89179
4.22311,1.88587
4.23068,1.88404
4.23825,1.89216
4.24582,1.9054
4.25339,1.89585
4.26096,1.91772
4.26852,1.92194
4.27609,1.94975
4.28366,1.94494
4.29123,1.97594
4.2988,1.97701
4.30637,1.9929
4.31393,2.02006
4.3215,2.03249
4.32907,2.04579
4.33664,2.0593
4.34421,2.08069
4.35178,2.08859
4.35934,2.10498
4.36691,2.12553
4.37448,2.13389
4.38205,2.14617
4.38962,2.16855
4.39719,2.18253
4.40475,2.18169
4.41232,2.20659
4.41989,2.20667
4.42746,2.22182
4.43503,2.23073
4.4426,2.23954
4.45016,2.24634
4.45773,2.25246
4.4653,2.25251
4.47287,2.25965
4.48044,2.26359
4.48801,2.2779
4.49557,2.26904
4.50314,2.26749
4.51071,2.2765
4.51828,2.27343
4.52585,2.26758
4.53342,2.27086
4.54098,2.26107
4.54855,2.27266
4.55612,2.26129
4.56369,2.25333
4.57126,2.23765
4.57883,2.22764
4.58639,2.21711
4.59396,2.21065
4.60153,2.19807
4.6091,2.19043
4.61667,2.18665
4.62423,2.16871
4.6318,2.15096
4.63937,2.13717
4.64694,2.12468
4.65451,2.11371
4.66208,2.08961
4.66964,2.07407
4.67721,2.06004
4.68478,2.04519
4.69235,2.02629
4.69992,2.01793
4.70749,2.00994
4.71505,1.99514
4.72262,1.98198
4.73019,1.95709
4.73776,1.94734
4.74533,1.92373
4.7529,1.91675
4.76046,1.89484
4.76803,1.90257
4.7756,1.8946
4.78317,1.87888
4.79074,1.86708
4.79831,1.86199
4.80587,1.85954
4.81344,1.85314
4.82101,1.8477
4.82858,1.85115
4.83615,1.83972
4.84372,1.82665
4.85128,1.83033
4.85885,1.82342
4.86642,1.834
4.87399,1.82324
4.88156,1.80633
4.88913,1.81776
4.89669,1.81225
4.90426,1.80092
4.91183,1.82365
4.9194,1.80486
4.92697,1.80508
4.93454,1.81155
4.9421,1.80151
4.94967,1.78447
4.95724,1.7904
4.96481,1.80271
4.97238,1.79009
4.97995,1.80757
4.98751,1.79604
4.99508,1.78779
5.00265,1.79068
5.01022,1.80316
5.01779,1.79819
5.02536,1.79756
5.03292,1.80381
5.04049,1.79847
5.04806,1.79071
5.05563,1.79624
5.0632,1.80659
5.07077,1.80079
5.07833,1.79055
5.0859,1.78605
5.09347,1.79359
5.10104,1.79539
5.10861,1.7958
5.11617,1.82004
5.12374,1.80443
5.13131,1.79587
5.13888,1.80572
5.14645,1.81651
5.15402,1.81749
5.16158,1.82192
5.16915,1.83339
5.17672,1.82921
5.18429,1.84629
5.19186,1.87187
5.19943,1.86823
5.20699,1.87491
5.21456,1.89101
5.22213,1.88431
5.2297,1.90633
5.23727,1.91636
5.24484,1.91118
5.2524,1.92761
5.25997,1.93953
5.26754,1.94686
5.27511,1.95096
5.28268,1.96824
5.29025,1.9615
5.29781,1.99038
5.30538,1.98466
5.31295,1.99113
5.32052,2.00685
5.32809,2.01526
5.33566,2.01038
5.34322,2.02071
5.35079,2.02466
5.35836,2.0407
5.36593,2.05596
5.3735,2.04304
5.38107,2.02726
5.38863,2.04516
5.3962,2.04766
5.40377,2.06088
5.41134,2.04961
5.41891,2.06516
5.42648,2.05047
5.43404,2.04433
5.44161,2.0583
5.44918,2.05489
5.45675,2.05611
5.46432,2.04958
5.47189,2.06389
5.47945,2.05232
5.48702,2.05319
5.49459,2.04852
5.50216,2.053
5.50973,2.05814
5.5173,2.05075
5.52486,2.05274
5.53243,2.03976
5.54,2.03814
5.54757,2.03396
5.55514,2.03678
5.5627,2.04683
5.57027,2.04772
5.57784,2.04051
5.58541,2.03974
5.59298,2.05157
5.60055,2.03926
5.60811,2.0512
5.61568,2.05912
5.62325,2.06261
5.63082,2.06802
5.63839,2.07097
5.64596,2.09575
5.65352,2.0883
5.66109,2.098
5.66866,2.10137
5.67623,2.11085
5.6838,2.122
5.69137,2.13112
5.69893,2.14509
5.7065,2.15801
5.71407,2.17322
5.72164,2.16586
5.72921,2.1817
5.73678,2.18989
5.74434,2.20421
5.75191,2.21596
5.75948,2.22491
5.76705,2.23978
5.77462,2.24565
5.78219,2.26099
5.78975,2.26269
5.79732,2.28178
5.80489,2.29355
5.81246,2.29934
5.82003,2.31964
5.8276,2.32474
5.83516,2.33126
5.84273,2.3486
5.8503,2.36367
5.85787,2.37058
5.86544,2.37531
5.87301,2.38876
5.88057,2.39896
5.88814,2.41869
5.89571,2.42527
5.90328,2.42239
5.91085,2.4424
5.91842,2.44362
5.92598,2.45174
5.93355,2.45522
5.94112,2.46659
5.94869,2.48093
5.95626,2.48632
5.96383,2.49941
5.97139,2.50338
5.97896,2.51348
5.98653,2.52243
5.9941,2.53823
6.00167,2.54416
6.00923,2.55467
6.0168,2.56594
6.02437,2.58243
6.03194,2.59825
6.03951,2.60918
6.04708,2.6167
6.05464,2.64035
6.06221,2.6568
6.06978,2.67011
6.07735,2.6829
6.08492,2.70079
6.09249,2.71706
6.10005,2.73579
6.10762,2.75657
6.11519,2.77526
6.12276,2.79704
6.13033,2.81042
6.1379,2.83222
6.14546,2.84811
6.15303,2.86673
6.1606,2.88911
6.16817,2.90708
6.17574,2.92594
6.18331,2.94503
6.19087,2.96237
6.19844,2.98439
6.20601,3.00214
6.21358,3.01845
6.22115,3.03718
6.22872,3.05357
6.23628,3.07076
6.24385,3.08536
6.25142,3.10274
6.25899,3.11727
6.26656,3.12667
6.27413,3.14195
6.28169,3.15061
6.28926,3.16884
6.29683,3.17667
6.3044,3.18686
6.31197,3.19451
6.31954,3.20374
6.3271,3.21325
6.33467,3.21979
6.34224,3.22541
6.34981,3.23166
6.35738,3.23419
6.36495,3.23831
6.37251,3.24249
6.38008,3.24529
6.38765,3.24595
6.39522,3.24764
6.40279,3.24626
6.41036,3.24325
6.41792,3.24437
6.42549,3.23716
6.43306,3.23653
6.44063,3.23066
6.4482,3.22428
6.45577,3.21524
6.46333,3.20879
6.4709,3.20006
6.47847,3.19277
6.48604,3.18144
6.49361,3.1704
6.50117,3.15912
6.50874,3.14765
6.51631,3.13334
6.52388,3.12288
6.53145,3.10641
6.53902,3.09336
6.54658,3.07854
6.55415,3.06349
6.56172,3.04677
6.56929,3.03369
6.57686,3.01628
6.58443,2.99872
6.59199,2.9844
6.59956,2.96637
6.60713,2.95465
6.6147,2.93896
6.62227,2.92483
6.62984,2.90769
6.6374,2.8938
6.64497,2.88572
6.65254,2.87049
6.66011,2.86222
6.66768,2.85586
6.67525,2.84629
6.68281,2.83927
6.69038,2.83622
6.69795,2.83549
6.70552,2.83236
6.71309,2.83229
6.72066,2.83614
6.72822,2.83969
6.73579,2.84798
6.74336,2.84865
6.75093,2.85368
6.7585,2.86039
6.76607,2.8676
6.77363,2.87489
6.7812,2.88879
6.78877,2.89539
6.79634,2.90195
6.80391,2.90803
6.81148,2.91896
6.81904,2.92653
6.82661,2.93189
6.83418,2.9416
6.84175,2.95123
6.84932,2.95381
6.85689,2.95958
6.86445,2.96566
6.87202,2.97236
6.87959,2.97741
6.88716,2.98369
6.89473,2.98304
6.9023,2.99147
6.90986,2.99172
6.91743,2.99209
6.925,2.99416
6.93257,2.99051
6.94014,2.99451
6.9477,2.99504
6.95527,2.99126
6.96284,2.99086
6.97041,2.98527
6.97798,2.97937
6.98555,2.97677
6.99311,2.96815
7.00068,2.96312
7.00825,2.95487
7.01582,2.94768
7.02339,2.93446
7.03096,2.92778
7.03852,2.91753
7.04609,2.90785
7.05366,2.89763
7.06123,2.88127
7.0688,2.86655
7.07637,2.85682
7.08393,2.84213
7.0915,2.82809
7.09907,2.80513
7.10664,2.79069
7.11421,2.77297
7.12178,2.75646
7.12934,2.73316
7.13691,2.70796
7.14448,2.69351
7.15205,2.66414
7.15962,2.65091
7.16719,2.62802
7.17475,2.60377
7.18232,2.58202
7.18989,2.55533
7.19746,2.54072
7.20503,2.50702
7.2126,2.48204
7.22016,2.45517
7.22773,2.43006
7.2353,2.3982
7.24287,2.38419
7.25044,2.34972
7.25801,2.32754
7.26557,2.29606
7.27314,2.26973
7.28071,2.24597
7.28828,2.21896
7.29585,2.19836
7.30342,2.17836
7.31098,2.14687
7.31855,2.1164
7.32612,2.09326
7.33369,2.06739
7.34126,2.05771
7.34883,2.03858
7.35639,2.00618
7.36396,1.99672
7.37153,1.97966
7.3791,1.95917
7.38667,1.95605
7.39423,1.94194
7.4018,1.92671
7.40937,1.92248
7.41694,1.89993
7.42451,1.90844
7.43208,1.8948
7.43964,1.88525
7.44721,1.89006
7.45478,1.87858
7.46235,1.87513
7.46992,1.88798
7.47749,1.87356
7.48505,1.88355
7.49262,1.88304
7.50019,1.87294
7.50776,1.87534
7.51533,1.88186
7.5229,1.8874
7.53046,1.89196
7.53803,1.87476
7.5456,1.87958
7.55317,1.87593
7.56074,1.87909
7.56831,1.87801
7.57587,1.89494
7.58344,1.87109
7.59101,1.86716
7.59858,1.86592
7.60615,1.87576
7.61372,1.8693
7.62128,1.87717
7.62885,1.8579
7.63642,1.84542
7.64399,1.85361
7.65156,1.85521
7.65913,1.85007
7.66669,1.83342
7.67426,1.82725
7.68183,1.83487
7.6894,1.80417
7.69697,1.81917
7.70454,1.81183
7.7121,1.80461
7.71967,1.80131
7.72724,1.78235
7.73481,1.76309
7.74238,1.78161
7.74995,1.74942
7.75751,1.7384
7.76508,1.7304
7.77265,1.70609
7.78022,1.72052
7.78779,1.69401
7.79536,1.67703
7.80292,1.65415
7.81049,1.64668
7.81806,1.62454
7.82563,1.60015
7.8332,1.59894
7.84077,1.60975
7.84833,1.56471
7.8559,1.56074
7.86347,1.53622
7.87104,1.50702
7.87861,1.48156
7.88617,1.47879
7.89374,1.48889
7.90131,1.44594
7.90888,1.43587
7.91645,1.40721
7.92402,1.41064
7.93158,1.39321
7.93915,1.38767
7.94672,1.36746
7.95429,1.34817
7.96186,1.32444
7.96943,1.32702
7.97699,1.32176
7.98456,1.31814
7.99213,1.31366
7.9997,1.29495
8.00727,1.27354
8.01484,1.30326
8.0224,1.2876
8.02997,1.28175
8.03754,1.26705
8.04511,1.22941
8.05268,1.22003
8.06025,1.22272
8.06781,1.22682
8.07538,1.21134
8.08295,1.2058
8.09052,1.19859
8.09809,1.195
8.10566,1.19592
8.11322,1.18699
8.12079,1.20432
8.12836,1.18287
8.13593,1.17523
8.1435,1.18925
8.15107,1.19995
8.15863,1.18511
8.1662,1.16252
8.17377,1.12423
8.18134,1.18078
8.18891,1.16956
8.19648,1.13779
8.20404,1.13416
8.21161,1.13282
8.21918,1.13898
8.22675,1.14138
8.23432,1.13506
8.24189,1.14575
8.24945,1.12804
8.25702,1.12189
8.26459,1.12915
8.27216,1.1291
8.27973,1.09381
8.2873,1.143
8.29486,1.11635
8.30243,1.16006
8.31,1.12008
8.31757,1.12682
8.32514,1.10914
8.3327,1.10184
8.34027,1.13588
8.34784,1.0886
8.35541,1.12099
8.36298,1.12813
8.37055,1.0789
8.37811,1.13115
8.38568,1.08851
8.39325,1.10386
8.40082,1.11817
8.40839,1.07806
8.41596,1.07505
8.42352,1.08182
8.43109,1.10156
8.43866,1.09277
8.44623,1.08061
8.4538,1.12027
8.46137,1.11428
8.46893,1.10677
8.4765,1.11003
8.48407,1.0677
8.49164,1.09773
8.49921,1.11424
8.50678,1.08606
8.51434,1.08702
8.52191,1.10775
8.52948,1.10383
8.53705,1.11213
8.54462,1.12049
8.55219,1.08476
8.55975,1.06147
8.56732,1.06758
8.57489,1.08403
8.58246,1.08345
8.59003,1.04272
8.5976,1.04456
8.60516,1.0572
8.61273,1.0867
8.6203,1.06251
8.62787,1.05869
8.63544,1.07433
8.64301,1.07599
8.65057,1.07722
8.65814,1.04006
8.66571,1.03393
8.67328,1.06862
8.68085,1.03906
8.68842,1.05498
8.69598,1.06437
8.70355,1.05384
8.71112,1.05601
8.71869,1.04691
8.72626,1.03872
8.73383,1.03435
8.74139,1.04858
8.74896,1.03473
8.75653,1.03283
8.7641,1.04309
8.77167,1.05252
8.77923,1.04603
8.7868,1.03382
8.79437,1.01993
8.80194,0.99454
8.80951,1.05113
8.81708,1.01295
8.82464,0.99516
8.83221,0.99781
8.83978,1.00009
8.84735,0.99645
8.85492,1.01631
8.86249,0.98101
8.87005,1.0252
8.87762,0.98454
8.88519,0.96415
8.89276,0.97928
8.90033,0.96496
8.9079,0.99409
8.91546,0.95709
8.92303,0.99801
8.9306,0.96875
8.93817,0.978
8.94574,1.00523
8.95331,0.96941
8.96087,0.99836
8.96844,0.95403
8.97601,0.95908
8.98358,1.00492
8.99115,0.95869
8.99872,0.97259
9.00628,0.94585
9.01385,0.94452
9.02142,0.92871
9.02899,0.97995
9.03656,0.93831
9.04413,0.95591
9.05169,0.93364
9.05926,0.96609
9.06683,0.95367
9.0744,0.93643
9.08197,0.93508
9.08954,0.97979
9.0971,0.96506
9.10467,0.96209
9.11224,0.92085
9.11981,0.95261
9.12738,0.97623
9.13495,0.95389
9.14251,0.95975
9.15008,0.9456
9.15765,0.96544
9.16522,0.97841
9.17279,0.91518
9.18036,0.95898
9.18792,0.95275
9.19549,0.94172
9.20306,0.97565
9.21063,0.97453
9.2182,0.97251
9.22577,0.96174
9.23333,0.95746
9.2409,0.93383
9.24847,0.95414
9.25604,0.93622
9.26361,0.96401
9.27117,0.95655
9.27874,0.94552
9.28631,0.931
9.29388,0.95552
9.30145,0.93933
9.30902,0.95917
9.31658,0.93496
9.32415,0.92673
9.33172,0.95936
9.33929,0.96774
9.34686,0.92863
9.35443,0.95363
9.36199,0.95358
9.36956,0.97695
9.37713,0.95419
9.3847,0.96613
